Time,ECG
0.0,1.0
0.002,0.9873750939829385
0.004,0.9515168037084211
0.006,0.7211792534609827
0.008,0.5566551041829115
0.01,0.29026638991205517
0.012,0.10013939105687437
0.014,-0.05805949692296805
0.016,-0.10251468837113667
0.018000000000000002,-0.06596054290225972
0.02,-0.1414551355967512
0.022,-0.10348647806833103
0.024,-0.10855079520985268
0.026000000000000002,-0.1887033746068171
0.028,-0.16219378944936702
0.03,-0.21674124209355608
0.032,-0.18412750596950117
0.034,-0.17703130986707116
0.036000000000000004,-0.10984864540801095
0.038,-0.012729368053036979
0.04,0.01566534148830378
0.042,0.0200718720546468
0.044,0.08704105401650787
0.046,-0.004678987261200647
0.048,0.0230471622506521
0.05,0.08232013890940562
0.052000000000000005,-0.030818936732315585
0.054,-0.01814184738097846
0.056,0.03941292143459002
0.058,0.013262060604753542
0.06,-0.0588567502157854
0.062,0.050243334645744764
0.064,0.04956499832720514
0.066,0.05638587619211338
0.068,0.04951363651742674
0.07,0.04902151528417023
0.07200000000000001,0.03138031388862414
0.074,-0.044099444109878774
0.076,-0.01762662420631757
0.078,-0.039650217068492075
0.08,0.03370593666834602
0.082,0.014744932500198867
0.084,0.08132621598387027
0.08600000000000001,0.14182347980853272
0.088,0.08144301110588256
0.09,0.021463794319332593
0.092,0.03718320951591226
0.094,-0.06126135440079148
0.096,-0.03531612938288471
0.098,-0.06575051277590839
0.1,0.0499023210376337
0.10200000000000001,0.101704170553984
0.10400000000000001,0.11005505684274351
0.106,0.11031429310892667
0.108,0.08522396962851757
0.11,0.0103643451461519
0.112,-0.006559645381295866
0.114,-0.06251943648764097
0.116,0.017871811156893645
0.11800000000000001,0.01985368085386386
0.12,0.0560215524831532
0.122,0.11807164968168646
0.124,0.06225293242035248
0.126,0.09326415749087777
0.128,0.02626487473397791
0.13,0.04754824228416342
0.132,-0.028283347212556285
0.134,0.004277482211578927
0.136,0.05528792806341487
0.138,-0.01240124475357983
0.14,0.1252115446064209
0.14200000000000002,0.06732931431935496
0.14400000000000002,0.05400718046847964
0.146,0.04881033557666256
0.148,0.1172434341370527
0.15,0.019863419995478217
0.152,0.05114898267239793
0.154,0.008347918337819903
0.156,0.04604747153890336
0.158,0.02549591111316356
0.16,0.024851100830503035
0.162,0.04656668555803545
0.164,0.04214857111447401
0.166,0.10259793916634252
0.168,0.13657453104410755
0.17,0.14648745895727674
0.17200000000000001,0.0018214613393176468
0.17400000000000002,0.0159167603168991
0.176,-0.004934283945463823
0.178,-0.007376224180531611
0.18,0.0721347944253987
0.182,0.06036145165141474
0.184,0.09777847665502046
0.186,0.13822725248860732
0.188,0.11562451994268483
0.19,0.07722555937605728
0.192,0.03263608449596078
0.194,-0.021734355175372765
0.196,-0.0005725845381568707
0.198,0.02006681156033558
0.2,0.06169183085668107
0.202,0.1096865216813305
0.20400000000000001,0.13994422904245413
0.20600000000000002,0.13452476185652743
0.20800000000000002,0.09622201449367397
0.21,0.06993674205802092
0.212,0.010347081423397216
0.214,-0.03594914516904836
0.216,0.06459323689465304
0.218,0.02537734393993665
0.22,0.10537933184336684
0.222,0.1326853019288029
0.224,0.10588414962315963
0.226,0.18898531793064427
0.228,0.033422354669684504
0.23,0.02004642836065578
0.232,0.021327869705826057
0.234,0.0482387622918944
0.23600000000000002,0.08529954050892832
0.23800000000000002,0.07803708838512534
0.24,0.10408234247540321
0.242,0.08333301458101972
0.244,0.10310765812521998
0.246,0.12790276298288958
0.248,0.10088557246434604
0.25,0.045499480193932726
0.252,0.08623728242921362
0.254,0.07742629214587736
0.256,0.07328855122740899
0.258,0.08194179658170478
0.26,0.0579908641565231
0.262,0.11151673463435419
0.264,0.08273757812938243
0.266,0.19809714494217923
0.268,0.13422408431872418
0.27,0.1513811860581258
0.272,0.11386874713329806
0.274,0.08526745414384557
0.276,0.06823214360774535
0.278,0.03346602560134747
0.28,0.12288844307462096
0.28200000000000003,0.1602323363748871
0.28400000000000003,0.19966600448098903
0.28600000000000003,0.2269380438214252
0.28800000000000003,0.19061143118231597
0.29,0.1636898963362749
0.292,0.14123159579941
0.294,0.12938090835731386
0.296,0.107348028959074
0.298,0.1519925228538657
0.3,0.2310941058500513
0.302,0.25905867719068093
0.304,0.2618604294403634
0.306,0.3537298264176328
0.308,0.23003325150567655
0.31,0.26290955456113974
0.312,0.17107921140848592
0.314,0.21874232411338246
0.316,0.22585130598828246
0.318,0.30308452826504334
0.32,0.3280535641378748
0.322,0.3347293651692891
0.324,0.3855151174140822
0.326,0.3839242938338578
0.328,0.3543044297446055
0.33,0.3560360710450928
0.332,0.2923457245070402
0.334,0.33953391867873683
0.336,0.4024055176382381
0.338,0.39123486310152455
0.34,0.44990520998151035
0.342,0.4277884835856058
0.34400000000000003,0.45188546343775804
0.34600000000000003,0.42848101557242857
0.34800000000000003,0.46138765267663334
0.35000000000000003,0.44496688518976724
0.352,0.43330025142908757
0.354,0.4396808356874515
0.356,0.4224787621067437
0.358,0.38653758015656775
0.36,0.4605552378451404
0.362,0.4349431405518811
0.364,0.49850688230118023
0.366,0.43303052392454616
0.368,0.5393369260585902
0.37,0.46380532434008964
0.372,0.4432527154034452
0.374,0.3884131241860173
0.376,0.38350347188883216
0.378,0.35720799553534505
0.38,0.3962415508696067
0.382,0.3787044219356361
0.384,0.45330707703738754
0.386,0.4654383757127979
0.388,0.4609553047264957
0.39,0.37527430903751696
0.392,0.36170299722847676
0.394,0.2583090365255474
0.396,0.26970411186198456
0.398,0.24219791807621535
0.4,0.34888712594348753
0.402,0.35411358843872076
0.404,0.38049307886323247
0.406,0.3858318991139288
0.40800000000000003,0.2807670287574859
0.41000000000000003,0.2750001356246861
0.41200000000000003,0.17500255243458462
0.41400000000000003,0.14573878515312594
0.41600000000000004,0.2071341937624518
0.418,0.2445946547817159
0.42,0.24681985568283007
0.422,0.2553369456984566
0.424,0.2742495339127306
0.426,0.24556717737489067
0.428,0.18706196634867556
0.43,0.1645685907633446
0.432,0.10125021492319897
0.434,0.1580117897166383
0.436,0.14144076726050986
0.438,0.17213451114564454
0.44,0.1613982943547157
0.442,0.15870036444828978
0.444,0.1789241080316546
0.446,0.19141177463614203
0.448,0.15786439426427082
0.45,0.11206540947408343
0.452,0.1542742019561837
0.454,0.12479959344614956
0.456,0.09370708924035925
0.458,0.11131815003284677
0.46,0.07866785057184927
0.462,0.17136955540339693
0.464,0.14584940446624922
0.466,0.1535555843168887
0.468,0.1741826667955917
0.47000000000000003,0.12199824305469059
0.47200000000000003,0.1606439814421062
0.47400000000000003,0.07014029836829079
0.47600000000000003,0.05741108926636595
0.47800000000000004,0.04532616920403856
0.48,0.09500569640589797
0.482,0.17329028186837103
0.484,0.16047357694109635
0.486,0.1883951309333205
0.488,0.12729189042840114
0.49,0.1906567517775632
0.492,0.08437653558976344
0.494,0.024625286866310346
0.496,0.04708322196416487
0.498,0.02996407227267938
0.5,0.16659877936800244
0.502,0.14971126558351838
0.504,0.16796021401816325
0.506,0.18542169146763898
0.508,0.17316792299844647
0.51,0.09613870993865774
0.512,0.09425734830698593
0.514,-0.013890928896650515
0.516,0.08506049651664095
0.518,0.12701449620712763
0.52,0.16735575507964567
0.522,0.1372756386267186
0.524,0.1413144433756699
0.526,0.16487787580365304
0.528,0.10743939589049076
0.53,0.1291906258775691
0.532,0.06833319017047121
0.534,0.06816078889554675
0.536,0.08648226788435742
0.538,0.12004280910917259
0.54,0.12472467347153515
0.542,0.1389850390855695
0.544,0.11634410878846457
0.546,0.13653010091689471
0.548,0.13849894886799885
0.55,0.11698493159300853
0.552,0.11841970237703767
0.554,0.07604156511018731
0.556,0.13474452660988673
0.558,0.059972241652344285
0.56,0.13069039413225889
0.562,0.1014940622957089
0.5640000000000001,0.12327290774325717
0.5660000000000001,0.16675475261353517
0.5680000000000001,0.13521634540966096
0.5700000000000001,0.17373206961961418
0.5720000000000001,0.07459471798687656
0.5740000000000001,0.11215598279599799
0.5760000000000001,0.048965877016169314
0.578,0.08014564559598863
0.58,0.05582919513573638
0.582,0.14406587736076504
0.584,0.1727650903454197
0.586,0.17505997708788243
0.588,0.1829910017776084
0.59,0.13747654234865697
0.592,0.0914348554963427
0.594,-0.004447403050401394
0.596,0.03390868022247159
0.598,0.10525544049716168
0.6,0.06053400617850347
0.602,0.20281885792729684
0.604,0.15611498402736396
0.606,0.21421359616833793
0.608,0.1403728475439691
0.61,0.07912150497500361
0.612,0.06913096087338988
0.614,0.034315259009705466
0.616,0.04736847473934287
0.618,0.08580220460667884
0.62,0.18046769663795342
0.622,0.17280329083893167
0.624,0.16496522476922013
0.626,0.15363186554232994
0.628,0.09019562771776174
0.63,0.10948828505212727
0.632,0.06507707835347061
0.634,0.053395963304054606
0.636,0.08044501624466377
0.638,0.11314766277983679
0.64,0.10269714898186001
0.642,0.13986909022066138
0.644,0.1595205529018024
0.646,0.14912588373991767
0.648,0.0756439173092055
0.65,0.12717000999037248
0.652,0.11493784571700394
0.654,0.08231848016423078
0.656,0.07314236932457321
0.658,0.06909119707418304
0.66,0.09706458814534821
0.662,0.11359395707625972
0.664,0.143017094284056
0.666,0.11699154878035826
0.668,0.15821934376027702
0.67,0.1554454008173643
0.672,0.09823230511548327
0.674,0.07911262180801115
0.676,0.033638978641728934
0.678,0.03983879932009082
0.68,0.06489164583662302
0.682,0.15236028485677403
0.684,0.13033928708386916
0.686,0.24677509396638966
0.6880000000000001,0.1450712178772302
0.6900000000000001,0.1055422594029157
0.6920000000000001,0.06675784941747458
0.6940000000000001,0.016039945411913156
0.6960000000000001,0.04049596053874771
0.6980000000000001,0.04401223259829657
0.7000000000000001,0.1240377939499965
0.7020000000000001,0.14156686015724623
0.704,0.19638226567342731
0.706,0.12434475967956046
0.708,0.15069087815183474
0.71,0.08698745923761232
0.712,0.038530818542313584
0.714,0.01752752671455763
0.716,0.05715501073840652
0.718,0.09123799895611087
0.72,0.14624338082774357
0.722,0.14459583212338273
0.724,0.15752750176633418
0.726,0.09867229283324218
0.728,0.09975124871365995
0.73,0.08164556454951591
0.732,0.039244166557518244
0.734,0.06124586615323384
0.736,0.08893232545608085
0.738,0.09124340290490757
0.74,0.08613303125796967
0.742,0.11457504935288204
0.744,0.14919195722941386
0.746,0.12140497617800587
0.748,0.10409339741097774
0.75,0.07665496478247455
0.752,0.07565425123415681
0.754,0.0779701961450901
0.756,0.07483271610208442
0.758,0.0639148295697836
0.76,0.07486936642921009
0.762,0.10144403532983207
0.764,0.1307312426153061
0.766,0.10161901526180026
0.768,0.1385026090932998
0.77,0.10926990162315095
0.772,0.09962618555934641
0.774,0.03437876169552753
0.776,0.005009302221578339
0.778,0.07305196669846045
0.78,0.08756699867250464
0.782,0.05771704141531461
0.784,0.1435752165714242
0.786,0.18698875969233045
0.788,0.09708899279502411
0.79,0.07467964225843374
0.792,0.000484115145725713
0.794,-0.07015436591960476
0.796,-0.09083336678777339
0.798,-0.07621183255964403
0.8,-0.01295259539464684
0.802,0.0022209738897312273
0.804,0.08431612945582283
0.806,0.07498635670059677
0.808,0.09485354088661221
0.81,0.035179591472820036
0.812,-0.013257255892934583
0.8140000000000001,0.18872014847558866
0.8160000000000001,0.33944420040423345
0.8180000000000001,0.5182957036511219
0.8200000000000001,0.7810862512359025
0.8220000000000001,0.922730033709184
0.8240000000000001,1.1248770047830217
0.8260000000000001,1.0652309716535233
0.8280000000000001,1.0924484735428668
0.8300000000000001,0.8728391094428466
0.8320000000000001,0.7494396735899173
0.834,0.5216862937117955
0.836,0.35677252994742603
0.838,0.3324561421392743
0.84,0.05278517917626375
0.842,0.03619322487980651
0.844,0.01441747974381228
0.846,-0.04965440305686338
0.848,-0.10011122556048807
0.85,-0.13530051455766512
0.852,-0.1202916945142248
0.854,-0.13690210970153613
0.856,-0.16589293577469716
0.858,-0.094521960642514
0.86,-0.09274305003142978
0.862,-0.014942398963074203
0.864,0.03935670192585011
0.866,0.08798853745249355
0.868,0.14559627848020476
0.87,0.05058260288802646
0.872,0.04889120829760926
0.874,-0.013824687203356341
0.876,0.11251010692223133
0.878,-0.03885788269538714
0.88,0.04604680337761824
0.882,0.0820994887620704
0.884,0.12808485408977202
0.886,0.10926032958195171
0.888,0.15412937235979898
0.89,0.0841566054285655
0.892,-0.021396285287654637
0.894,0.05047735765177032
0.896,-0.07269870102795947
0.898,0.05150915013035481
0.9,0.037795187936376574
0.902,0.0721394293324124
0.904,0.1459729161306974
0.906,0.11523819300401497
0.908,0.11390890958332303
0.91,0.006391997792367408
0.912,0.01228162087540792
0.914,-0.006419837994824989
0.916,0.0051463406141769134
0.918,0.02963217899647078
0.92,0.07661997443882376
0.922,0.10721174000272196
0.924,0.11933194086401339
0.926,0.10112099464497316
0.928,0.008914951209347585
0.93,0.040054668229901655
0.932,-0.025187118794350385
0.934,0.010836435460790848
0.936,0.0628277564744048
0.9380000000000001,0.05264145155826119
0.9400000000000001,0.052813589992743215
0.9420000000000001,0.0777198281650547
0.9440000000000001,0.0747738636689162
0.9460000000000001,0.052408415221511025
0.9480000000000001,0.015710302072588223
0.9500000000000001,0.10359765971703092
0.9520000000000001,0.016446948881388333
0.9540000000000001,0.0024801391134540197
0.9560000000000001,0.019237021987846752
0.9580000000000001,0.059940321178157265
0.96,-0.010427341515396336
0.962,0.051971909263865204
0.964,0.06005776258423675
0.966,0.09774692113144638
0.968,0.04012546976165887
0.97,0.06595262878182909
0.972,0.0640414220668262
0.974,-0.027428433657062573
0.976,-0.002963171779987811
0.978,0.004096287980641933
0.98,-0.027202159915417315
0.982,0.05190257512390352
0.984,0.1018796832402111
0.986,0.06512803264352415
0.988,0.11474544888963689
0.99,0.0658749359623479
0.992,0.0058446347486427064
0.994,-0.04715659611278829
0.996,-0.011272753313612834
0.998,-0.0832533666136283
1.0,0.06799270275031682
1.002,0.10659514291058564
1.004,0.1140692957059081
1.006,0.05466858459850539
1.008,0.03844778617804844
1.01,0.014554400104982029
1.012,-0.062183710154686905
1.014,-0.008144319462951785
1.016,-0.052188995210435636
1.018,0.047725985972770675
1.02,0.013358705032959932
1.022,0.10180606884073057
1.024,0.05419442204684729
1.026,0.08295353592137199
1.028,-0.0060511546148060355
1.03,0.04246759084206239
1.032,-0.05543256238443464
1.034,-0.03197894756414088
1.036,0.055753779298337365
1.038,-0.047066873109383525
1.04,0.04472633397195303
1.042,0.06357970217886122
1.044,0.05918174655389381
1.046,0.0035588122818812976
1.048,0.05284692248852586
1.05,-0.025809960743210385
1.052,0.002157482174019683
1.054,-0.003983125504603776
1.056,0.03790795945648719
1.058,-0.028813512623289562
1.06,-0.02117336095200258
1.062,0.03323238672675948
1.064,0.05425485854808713
1.066,0.05644954141908291
1.068,0.03586225699145422
1.07,0.043863924106618574
1.072,-0.018464966201329175
1.074,0.02418169429994263
1.076,-0.04227827740589254
1.078,-0.05349006848982345
1.08,-0.019496912204409
1.082,0.06974004345896152
1.084,0.05605659896223365
1.086,0.11146475406445452
1.088,0.060967923152999315
1.09,0.009275783466874445
1.092,0.01252575084255934
1.094,-0.05956747990768481
1.096,-0.03930124230409238
1.098,0.01833684025221339
1.1,0.008766623621437677
1.102,0.09262846770594053
1.104,0.1576736545392068
1.106,0.05548197663315056
1.108,0.11410835585157553
1.11,0.04281945568381329
1.112,0.008718648778200095
1.114,-0.00510264412661807
1.116,0.01721124160180854
1.118,0.08028545757428182
1.12,0.057793367653665356
1.122,0.15441422159651114
1.124,0.14284898665582768
1.1260000000000001,0.16621652161888548
1.1280000000000001,0.08394039940728523
1.1300000000000001,0.13691370955410034
1.1320000000000001,0.08310090282256767
1.1340000000000001,0.1469956587404776
1.1360000000000001,0.0744522009381757
1.1380000000000001,0.15608560054727835
1.1400000000000001,0.1868006442536236
1.1420000000000001,0.23482468162045422
1.1440000000000001,0.2048704617595619
1.1460000000000001,0.22053012663945004
1.1480000000000001,0.19014298577813726
1.1500000000000001,0.21485654973111548
1.1520000000000001,0.274578764189908
1.154,0.19496047225943258
1.156,0.2192786263854985
1.158,0.2337145690497994
1.16,0.2720614725567725
1.162,0.23813036782821712
1.164,0.31203861099144536
1.166,0.34854717755530545
1.168,0.3053389351537317
1.17,0.37280826189290306
1.172,0.2830514808033126
1.174,0.31344663748571167
1.176,0.26258161795731894
1.178,0.2616730691961944
1.18,0.2540487368426074
1.182,0.33806605302032977
1.184,0.416055943487546
1.186,0.39315473436268905
1.188,0.38493042511593334
1.19,0.4020916242799305
1.192,0.2355398388274246
1.194,0.23099879443584267
1.196,0.2502885274322123
1.198,0.24036009144867831
1.2,0.324187207527241
1.202,0.3740880593311991
1.204,0.35800197364341996
1.206,0.339431617447541
1.208,0.3570713342015663
1.21,0.20794484847580014
1.212,0.1929054808936688
1.214,0.13015639981641036
1.216,0.23263878256356427
1.218,0.170488841460049
1.22,0.3117496120954164
1.222,0.2522479543547088
1.224,0.21629418178963272
1.226,0.2535272719047919
1.228,0.17527010618492755
1.23,0.1452519978113476
1.232,0.07830906561123425
1.234,0.10727615939742624
1.236,0.13126524028619757
1.238,0.06436936738051352
1.24,0.13182474162260105
1.242,0.018636937225012223
1.244,0.07126475216259989
1.246,0.02040331875604223
1.248,-0.04405282152113947
1.25,0.0046107473351785985
1.252,-0.08692430837091683
1.254,-0.08528558870375552
1.256,-0.030988007662451092
1.258,-0.06719426092978115
1.26,-0.03747058294775589
1.262,-0.004282556857434304
1.264,0.2065691067061536
1.266,0.2999098602550503
1.268,0.5265989123968824
1.27,0.6200876036640387
1.272,0.7584347029819698
1.274,0.8594985957603105
1.276,0.9452191132305241
1.278,0.919722119248514
1.28,0.8192711415047526
1.282,0.7232698882643029
1.284,0.5839930898262877
1.286,0.40205671344350535
1.288,0.2846268281345847
1.29,0.1300262811404603
1.292,-0.049181397841106735
1.294,-0.2352484395181491
1.296,-0.2630533083380974
1.298,-0.24242506822763688
1.3,-0.2330580908661328
1.302,-0.1713367879834276
1.304,-0.1315471742976316
1.306,-0.19160281157516343
1.308,-0.18857007245204055
1.31,-0.16538581014281634
1.312,-0.22609296280747293
1.314,-0.1641830666313163
1.316,-0.13656720029622682
1.318,-0.06653551004839024
1.32,-0.039576318753718434
1.322,0.0203865712659114
1.324,0.04582831828938205
1.326,-0.04439758189154286
1.328,-0.03822631097470299
1.33,-0.08878511814963062
1.332,-0.057398229140535745
1.334,-0.09484414965492924
1.336,-0.09732534369986824
1.338,-0.04494819791370143
1.34,-0.01552730523884099
1.342,-0.014017468887206584
1.344,-0.061235432636955106
1.346,0.007086815267108151
1.348,-0.07550590459199834
1.35,-0.059616068000797634
1.352,-0.05947820069184706
1.354,-0.0989285001213645
1.356,-0.010191849762895888
1.358,-0.07444836780254556
1.36,-0.08708968671192387
1.362,-0.06727739681995423
1.364,-0.05395498887856433
1.366,-0.004560973289661789
1.368,-0.031265449836195634
1.37,0.02298126989784381
1.372,-0.08652736884303874
1.374,-0.10139987967748802
1.3760000000000001,-0.08842813249124337
1.3780000000000001,-0.10194293328715548
1.3800000000000001,-0.09185439356641083
1.3820000000000001,-0.030805925855294604
1.3840000000000001,-0.0115607605975166
1.3860000000000001,0.0021962089993129152
1.3880000000000001,0.022325580925842657
1.3900000000000001,-0.024497888476275067
1.3920000000000001,-0.09590652927879378
1.3940000000000001,-0.09099463660650377
1.3960000000000001,-0.16499392523882034
1.3980000000000001,-0.1213346936442922
1.4000000000000001,-0.028331151037958954
1.4020000000000001,-0.03817957687498647
1.4040000000000001,0.05345512007327189
1.4060000000000001,-0.020090214353161363
1.408,0.017070829623933928
1.41,-0.0863212836005901
1.412,-0.1431908787501843
1.414,-0.14937384907198345
1.416,-0.0769411550255282
1.418,-0.06227391408519374
1.42,-0.09128134035780092
1.422,0.03582448197375236
1.424,-0.004820845862283336
1.426,0.011976110196632209
1.428,-0.09004375023898777
1.43,-0.07582306578221747
1.432,-0.09489472137066143
1.434,-0.11335945211428664
1.436,-0.030943880686937403
1.438,-0.10169076939376002
1.44,-0.026045120871731296
1.442,-0.07230454718841725
1.444,-0.02696858728482668
1.446,-0.05341200599512946
1.448,-0.009603265096865002
1.45,-0.08292699436637693
1.452,-0.09595102893231162
1.454,-0.07893497517861446
1.456,-0.04532461467667627
1.458,-0.10153383953156103
1.46,-0.05015291692115976
1.462,-0.07262454895739365
1.464,0.02701172517807511
1.466,-0.09801117320479613
1.468,0.015061154974437115
1.47,-0.053837190406755955
1.472,-0.06274155748807092
1.474,-0.11582448340496926
1.476,-0.11354191334463536
1.478,-0.09963421765137513
1.48,-0.12842436306086952
1.482,0.03408226283987459
1.484,0.006058468395346194
1.486,-0.012464387486930156
1.488,0.011677880531183675
1.49,-0.07076133771252058
1.492,-0.09743952933615169
1.494,-0.11825377912503039
1.496,-0.11456722620844388
1.498,-0.11604364236687624
1.5,-0.05491774764987324
1.502,-0.016725755500434293
1.504,-0.012598918455392308
1.506,0.015877488333858106
1.508,0.007375814496343579
1.51,-0.08339125064114308
1.512,-0.10628295936309871
1.514,-0.16218277597043346
1.516,-0.09031885061946537
1.518,-0.08196768361935591
1.52,0.000624582716574909
1.522,0.0033428572904730114
1.524,-0.019646277086442794
1.526,-0.006070273321106276
1.528,-0.0038784974849277037
1.53,-0.14842002008088173
1.532,-0.07491777844913619
1.534,-0.05525891370425995
1.536,-0.0611808726712968
1.538,-0.031376741554131116
1.54,-0.0703873374486545
1.542,0.009421364868057766
1.544,-0.011332458469612774
1.546,0.021904009285220703
1.548,-0.06908828527281938
1.55,0.004635804937756973
1.552,-0.0168241762326275
1.554,-0.07303011805940157
1.556,-0.02066477636920802
1.558,-0.05245152253525996
1.56,0.0028099448613989816
1.562,0.03736803140932971
1.564,0.02013271071440815
1.566,0.03174951387528569
1.568,0.04451685411264672
1.57,0.06501383778968527
1.572,0.08779852478069942
1.574,-0.02107157937581216
1.576,-0.020356482536729278
1.578,0.02984426917686922
1.58,0.03907588733597259
1.582,0.060409727205838454
1.584,0.1968188774205844
1.586,0.1955617119477756
1.588,0.12907888995507072
1.59,0.1670175932330868
1.592,0.06029326141801672
1.594,0.10410193692083514
1.596,0.04931423480372432
1.598,0.15284544571875724
1.6,0.1638357123587795
1.602,0.2602727901100546
1.604,0.20994932582026668
1.606,0.29656648028028726
1.608,0.2533431813360081
1.61,0.2412090458984732
1.612,0.1495621581864825
1.614,0.1957318646209052
1.616,0.2353346554472836
1.618,0.18451025090719442
1.62,0.2874062219465054
1.622,0.3439945608856074
1.624,0.3932217498546392
1.6260000000000001,0.271317085028035
1.6280000000000001,0.3051273274894222
1.6300000000000001,0.2816160942648893
1.6320000000000001,0.2746481836886516
1.6340000000000001,0.24528640535820484
1.6360000000000001,0.28366393919699545
1.6380000000000001,0.283552619308605
1.6400000000000001,0.2854848652509873
1.6420000000000001,0.35834115158776425
1.6440000000000001,0.33337036255145164
1.6460000000000001,0.30406721327020325
1.6480000000000001,0.3230255464764471
1.6500000000000001,0.26716255970585495
1.6520000000000001,0.25585870826078266
1.6540000000000001,0.24995687134418612
1.6560000000000001,0.2851628646675087
1.6580000000000001,0.17637622842440115
1.6600000000000001,0.2594816830722327
1.6620000000000001,0.22752141890971717
1.6640000000000001,0.3004830932774639
1.666,0.2221677788140216
1.668,0.26578491334619325
1.67,0.25504938165680624
1.672,0.18646578574994532
1.674,0.168215423251526
1.676,0.0914343595458418
1.678,0.08910797182060469
1.68,0.15704794366752542
1.682,0.18204394693343834
1.684,0.1472406116192907
1.686,0.23171546742503982
1.688,0.17420535397931433
1.69,0.10413666106975816
1.692,0.0334573684466531
1.694,0.0450262790433735
1.696,-0.01542294548869692
1.698,0.04749472697173722
1.7,0.0347556527995326
1.702,0.10096835598599702
1.704,0.14226672930105774
1.706,0.12194147196565161
1.708,0.04987011393441354
1.71,0.057973379647615515
1.712,-0.05450988738658685
1.714,-0.09623686235787246
1.716,-0.017722006887654587
1.718,0.025186847120163502
1.72,0.008633619375948233
1.722,0.088907845465273
1.724,0.01442350656483176
1.726,0.05531510929498249
1.728,-0.027391591295097918
1.73,-0.09702426014322586
1.732,-0.11390812677956164
1.734,-0.1389439705350963
1.736,-0.14844399135509118
1.738,-0.08596025810511249
1.74,-0.12859335588446588
1.742,-0.06627968408058636
1.744,-0.04501607701571754
1.746,-0.11445517430421195
1.748,-0.05859621608774541
1.75,-0.030658879336172097
1.752,-0.07270583638174101
1.754,0.22258338793066537
1.756,0.3017133449135871
1.758,0.5030016653513139
1.76,0.6362288159480103
1.762,0.8291087865277511
1.764,0.97957551764403
1.766,1.0467240525708819
1.768,0.9163575159105934
1.77,0.8216968887239803
1.772,0.6344768660280675
1.774,0.4015958800770624
1.776,0.2263223467334449
1.778,0.09770591289713446
1.78,-0.08210051739014032
1.782,-0.05727112293984958
1.784,-0.08907001877674754
1.786,-0.09524560756903337
1.788,-0.12930976078953066
1.79,-0.18855177699193265
1.792,-0.26498863758430746
1.794,-0.237472171060589
1.796,-0.2769764987406875
1.798,-0.22839897080802463
1.8,-0.1518047991182011
1.802,-0.07806876490664649
1.804,0.05606878049307473
1.806,0.059381609932836824
1.808,0.05264742525960538
1.81,-0.06948746666402998
1.812,-0.0958524950259061
1.814,-0.041948666045010664
1.816,-0.07506904895086525
1.818,-0.019859948013093973
1.82,0.012851808050338056
1.822,0.07814287726045412
1.824,0.04979784517192694
1.826,0.015084591592486745
1.828,-0.019290994550869564
1.83,-0.06200337929790145
1.832,0.018679133915538083
1.834,-0.08499991797609664
1.836,-0.024894956543162133
1.838,-0.0029149933067414793
1.84,0.01200629353945605
1.842,0.030830401022075786
1.844,0.020961215669833506
1.846,0.018057078537056837
1.848,0.012658195792702758
1.85,-0.011712427238844239
1.852,0.033437102069137775
1.854,-0.02108528579740579
1.856,-0.03240993853947266
1.858,-0.016567545661038546
1.86,-0.029212724676044854
1.862,0.0018254588941736083
1.864,0.07320209093494737
1.866,-0.02601427281861017
1.868,0.07723386502855854
1.87,0.06829887205177396
1.872,-0.005507502057408306
1.874,-0.070291536292871
1.8760000000000001,-0.0440046568005327
1.8780000000000001,-0.0267573510357696
1.8800000000000001,-0.04134962277036
1.8820000000000001,0.04745682711880054
1.8840000000000001,0.06680496453739541
1.8860000000000001,0.09809832422799153
1.8880000000000001,0.047132510131730546
1.8900000000000001,0.030264472272662483
1.8920000000000001,-0.01009585641812011
1.8940000000000001,-0.07425148035659394
1.8960000000000001,-0.05946413755059086
1.8980000000000001,0.005453929628845493
1.9000000000000001,-0.023655992027837545
1.9020000000000001,0.04988153732580636
1.9040000000000001,0.10859408351525081
1.9060000000000001,0.09160578302274783
1.9080000000000001,0.04343648045413139
1.9100000000000001,0.022684956918170508
1.9120000000000001,-0.054113854544023426
1.9140000000000001,-0.0569979085230787
1.9160000000000001,-0.038526186800922
1.9180000000000001,-0.029308891651920868
1.92,0.08645945775544824
1.922,0.07933178724138724
1.924,0.07114994796415891
1.926,0.0758634553643875
1.928,0.04641311141925737
1.93,-0.052584583389365114
1.932,0.03403098939098802
1.934,-0.0399368066318382
1.936,0.005946279538643613
1.938,0.04336358441599629
1.94,0.028788425347856653
1.942,0.04707891478386907
1.944,0.06745595571072119
1.946,0.0521562353281506
1.948,0.0013621258358467725
1.95,0.034338755100873176
1.952,0.08960760425213016
1.954,0.015026762255499444
1.956,-0.003417013794126938
1.958,0.0011407966256851334
1.96,0.01943133963567808
1.962,0.029066408523882255
1.964,0.059210241950277596
1.966,0.04932290644198527
1.968,0.1327370712721775
1.97,0.057947675261239284
1.972,0.03198263905757648
1.974,-0.026195817744743586
1.976,0.014110231074985338
1.978,-0.05745388486038154
1.98,0.02054654974848246
1.982,0.0673719333268378
1.984,0.06761655955399182
1.986,0.1620281754764545
1.988,0.09392194471489915
1.99,0.0689635159840257
1.992,0.022933451383450744
1.994,-0.03540513215261252
1.996,-0.036471527209801916
1.998,-0.014096941968707154
2.0,0.03222926596998384
2.0020000000000002,0.1063383649194837
2.004,0.14862669241241658
2.0060000000000002,0.1390383255953911
2.008,0.05491122251752655
2.0100000000000002,0.06985173483386745
2.012,-0.034961127835453014
2.0140000000000002,0.038112995311032086
2.016,-0.01832944711679082
2.0180000000000002,0.04364657088593216
2.02,0.0923285503409394
2.0220000000000002,0.13742511143991057
2.024,0.06962802691254485
2.0260000000000002,0.14975438730593954
2.028,0.07832136659489156
2.0300000000000002,0.02177910481312867
2.032,0.05218601523192154
2.0340000000000003,0.07192014065512561
2.036,0.037871872899074774
2.0380000000000003,0.09976817020167168
2.04,0.13222041865549294
2.0420000000000003,0.11198028851923687
2.044,0.1493240187671975
2.0460000000000003,0.11521941033991648
2.048,0.10441012889381225
2.05,0.16317096410253532
2.052,0.07768451242513964
2.054,0.1308151671324327
2.056,0.10236342446160998
2.058,0.15284445138970104
2.06,0.14969772167474277
2.062,0.12492846259545416
2.064,0.233007337150799
2.066,0.19504165822789724
2.068,0.24182187504503105
2.07,0.23816682367910572
2.072,0.21641538698684426
2.074,0.16055781012757958
2.076,0.21053771423029033
2.078,0.19146261561566508
2.08,0.24706111289885505
2.082,0.2623887633259339
2.084,0.34566045800318573
2.086,0.33125659359769066
2.088,0.3606821630277676
2.09,0.3542399131170876
2.092,0.2554029368870621
2.094,0.29041464278886525
2.096,0.2618701739561127
2.098,0.31440719971219133
2.1,0.32756725493949235
2.102,0.44244452983405325
2.104,0.49527197484383145
2.106,0.41940469917961665
2.108,0.4566323305196406
2.11,0.3363014299507365
2.112,0.4053083833363242
2.114,0.3303197819481793
2.116,0.37307920260080296
2.118,0.3840848305062198
2.12,0.50207229570604
2.122,0.4680248721351405
2.124,0.5178252029194943
2.126,0.46164145722710975
2.128,0.40375877182439923
2.13,0.458066233014745
2.132,0.3729305585741773
2.134,0.39553437427923027
2.136,0.44587545603282297
2.138,0.36907232611189295
2.14,0.4372176803943851
2.142,0.4579378711769079
2.144,0.450388587354312
2.146,0.4146488842476427
2.148,0.41645645286210137
2.15,0.3578458819421061
2.152,0.3792851092869588
2.154,0.3433016458318772
2.156,0.3128036708533798
2.158,0.35855032114654356
2.16,0.279773907869064
2.162,0.33824232651487973
2.164,0.3789530206631535
2.166,0.3136376423189305
2.168,0.3233365413221255
2.17,0.35352303812461194
2.172,0.2697805528784727
2.174,0.25191127059953217
2.176,0.16718534024761605
2.178,0.1861544146481785
2.18,0.23452486224033314
2.182,0.24276207216585444
2.184,0.29313063130384603
2.186,0.25979069699154456
2.188,0.2675069430836025
2.19,0.2314549054214703
2.192,0.17906089601027253
2.194,0.07113943823836333
2.196,0.15636008775162352
2.198,0.09691146668888402
2.2,0.1584929504662796
2.202,0.21506900693696504
2.204,0.2618254476988249
2.206,0.21413543348658623
2.208,0.1570040335867466
2.21,0.19926688569051385
2.212,0.0443694212092809
2.214,0.05734037143157261
2.216,0.07578528803603958
2.218,0.15152376571719742
2.22,0.1635898425257841
2.222,0.2070288999005859
2.224,0.19713869061838374
2.226,0.13801392726251363
2.228,0.12474200513194784
2.23,0.11343109292889708
2.232,0.04071836641044302
2.234,0.09757403006398532
2.236,0.13511793483938989
2.238,0.10805736312214609
2.24,0.15159642801020226
2.242,0.15719489987922886
2.244,0.12548087162815774
2.246,0.1501036698069115
2.248,0.14542613027688855
2.25,0.07896377521221698
2.2520000000000002,0.13597596394346922
2.254,0.0876550291016876
2.2560000000000002,0.11236523233235558
2.258,0.08162795334859549
2.2600000000000002,0.11921988296076079
2.262,0.1138006721267445
2.2640000000000002,0.17426283087765157
2.266,0.15271455064082723
2.2680000000000002,0.14530832539083216
2.27,0.15738011593493612
2.2720000000000002,0.15241649292659698
2.274,0.0869676616222768
2.2760000000000002,0.07303895895818747
2.278,0.06779516138104637
2.2800000000000002,0.11208232980871828
2.282,0.11975058091902874
2.2840000000000003,0.19183375696338745
2.286,0.18201006948844226
2.2880000000000003,0.23545807226930482
2.29,0.080935886941127
2.2920000000000003,0.14054342910181622
2.294,0.053702933096579364
2.2960000000000003,0.053034373001771676
2.298,0.04415054851988805
2.3000000000000003,0.18446115675513503
2.302,0.13674113245322508
2.3040000000000003,0.22533562871806156
2.306,0.21359723687430915
2.308,0.14500862358771735
2.31,0.11306888670516506
2.312,0.10041900629733963
2.314,0.058121936646977096
2.316,0.05339146348681113
2.318,0.1416601318788414
2.32,0.15463054110034835
2.322,0.1769657835224168
2.324,0.19569816214787894
2.326,0.21725874428114403
2.328,0.10469306019539153
2.33,0.07902751033329433
2.332,0.10219228153850077
2.334,0.06960931075073434
2.336,0.18081101102746128
2.338,0.08470489305500606
2.34,0.1885405114166251
2.342,0.16097052654922317
2.344,0.14122122002156562
2.346,0.1680385096030319
2.348,0.1348460491493681
2.35,0.16764561886646775
2.352,0.07933552773864078
2.354,0.15686694449561445
2.356,0.1175817880047879
2.358,0.11107049988195665
2.36,0.09802216961769919
2.362,0.1710857260503083
2.364,0.17021483215780173
2.366,0.1306020456536596
2.368,0.200749761779894
2.37,0.20489217805805937
2.372,0.1122914740653452
2.374,0.13774613307869438
2.376,0.07155858963183244
2.378,0.07341692484018739
2.38,0.1323734015776735
2.382,0.17004082365200396
2.384,0.15465147831217024
2.386,0.2500258685626881
2.388,0.18847757703209453
2.39,0.17235768021403636
2.392,0.14385881309867227
2.394,0.018640364015416404
2.396,0.07993924951390532
2.398,0.1398205295396157
2.4,0.138032530354236
2.402,0.18895167814342279
2.404,0.20355502043113646
2.406,0.20160356050135203
2.408,0.20100215166849167
2.41,0.09581182259401988
2.412,0.1064238311210539
2.414,0.08834055439248964
2.416,0.0659480177901963
2.418,0.14657014613183308
2.42,0.17331017528476028
2.422,0.16141358536242487
2.424,0.26234269641310215
2.426,0.1724918265756134
2.428,0.14141917430574616
2.43,0.12627925571554033
2.432,0.08303569889332199
2.434,0.09809333708797353
2.436,0.1583197170619563
2.438,0.11266580392866166
2.44,0.18807973524484173
2.442,0.15204066913228498
2.444,0.1644447700481068
2.446,0.20281380259739828
2.448,0.15856732242662927
2.45,0.1592311884276464
2.452,0.16403292579762474
2.454,0.09222157281956923
2.456,0.09988095016649952
2.458,0.14729240018525447
2.46,0.12992346355734452
2.462,0.17122068828163403
2.464,0.15518865418616
2.466,0.19882707946599945
2.468,0.19662989735498598
2.47,0.12507298658752308
2.472,0.18922976571789046
2.474,0.11514892986004932
2.476,0.08633840311039381
2.478,0.11285472735686505
2.48,0.08755092054475322
2.482,0.13168788892646865
2.484,0.25800202979170245
2.486,0.22764043481029436
2.488,0.17560324291281132
2.49,0.2032509044376204
2.492,0.10774485700247056
2.494,0.09801970341474897
2.496,0.05047334472659192
2.498,0.08431298920326699
2.5,0.13135485861211849
2.5020000000000002,0.17416313263648625
2.504,0.1985511897255237
2.5060000000000002,0.16159155810031853
2.508,0.10934763918705354
2.5100000000000002,0.005438080274069432
2.512,0.023920684788757633
2.5140000000000002,-0.04319879621116643
2.516,-0.004614208940546467
2.5180000000000002,0.06019099795952959
2.52,0.10919718473275951
2.5220000000000002,0.12159467947327784
2.524,0.24229864705993176
2.5260000000000002,0.1579771531546546
2.528,0.3597981618044406
2.5300000000000002,0.5125133763463829
2.532,0.6114369937729655
2.5340000000000003,0.8270742967627902
2.536,0.9920435763774315
2.5380000000000003,1.1230074659793252
2.54,1.171414107418224
2.5420000000000003,1.0991858262268286
2.544,0.9692685500395778
2.5460000000000003,0.7800788300977263
2.548,0.6167239916319085
2.5500000000000003,0.43351205521672787
2.552,0.3281021705514503
2.5540000000000003,0.10971454749058984
2.556,0.03991268343877606
2.5580000000000003,0.044583172605559655
2.56,-0.05276170080374571
2.562,-0.020493211363437475
2.564,0.005016308341184706
2.566,-0.050269413922267595
2.568,0.0034840359191741378
2.57,0.034832328070424586
2.572,-0.022399837338721355
2.574,-0.063114796386701
2.576,0.05529004291892796
2.578,0.04588455127614828
2.58,0.13891413548859882
2.582,0.14329661068970517
2.584,0.17321167511861033
2.586,0.22618111684211753
2.588,0.21674462933018235
2.59,0.21075946737212642
2.592,0.09295786211545853
2.594,0.04220064582408407
2.596,0.11365641862543734
2.598,0.06196729287626005
2.6,0.15247672801510004
2.602,0.18345341608285162
2.604,0.20451206042894005
2.606,0.20303302584851357
2.608,0.21264749988689233
2.61,0.10989429966480088
2.612,0.06993727990726646
2.614,0.08888144043376167
2.616,0.07646292195146698
2.618,0.1534815716149932
2.62,0.16143433924877526
2.622,0.20275777996384234
2.624,0.15805075138428354
2.626,0.2362575645496397
2.628,0.1313090252862821
2.63,0.1064875075837945
2.632,0.11081919569906985
2.634,0.0713861122047788
2.636,0.16036577381862482
2.638,0.10331738496257652
2.64,0.15109931940021876
2.642,0.18032471782619353
2.644,0.1713679740243708
2.646,0.15999952403984785
2.648,0.13414171384765677
2.65,0.14605627938833654
2.652,0.1312420077109402
2.654,0.11265532048748708
2.656,0.12865955667242307
2.658,0.11603300400689698
2.66,0.10249617117721249
2.662,0.14843307384455312
2.664,0.1580687753417451
2.666,0.16934146251178353
2.668,0.15591483286486987
2.67,0.19576191540964813
2.672,0.1334678929575683
2.674,0.0981802704191453
2.676,0.05976255029521262
2.678,0.08004489188315325
2.68,0.10683082974361179
2.682,0.15466614476306878
2.684,0.19959715218554472
2.686,0.22944817389854444
2.688,0.1642558726491163
2.69,0.15402643449026085
2.692,0.11972280331900535
2.694,0.02467156762492992
2.696,0.07919877604251443
2.698,0.03661840104403937
2.7,0.13856080643231677
2.702,0.21797046985009094
2.704,0.20160381576880315
2.706,0.15128324413319982
2.708,0.17652088544688388
2.71,0.09902322494421302
2.712,0.10481793336015835
2.714,0.0495927834841067
2.716,0.08418038170843872
2.718,0.10872756149361512
2.72,0.17350583800137231
2.722,0.17334813486060768
2.724,0.1592877094930984
2.726,0.18863449280834071
2.728,0.11752230023148988
2.73,0.0813389464063161
2.732,0.07760654420801691
2.734,0.10188723989231122
2.736,0.11427020954734012
2.738,0.09436100252209041
2.74,0.12319803220266096
2.742,0.20745329738321952
2.744,0.12000672353394742
2.746,0.11998701837344039
2.748,0.12135060760982988
2.75,0.14942504443098223
2.7520000000000002,0.08705722530331836
2.754,0.07807079225471752
2.7560000000000002,0.15674165807519413
2.758,0.0980177802817582
2.7600000000000002,0.05810663964478109
2.762,0.1355208413662825
2.7640000000000002,0.1474856306320663
2.766,0.12978811089258194
2.7680000000000002,0.20076016936971053
2.77,0.11331753706156523
2.7720000000000002,0.07758531795241402
2.774,0.11742835515346181
2.7760000000000002,0.08228655347526082
2.778,0.0601384150799399
2.7800000000000002,0.11094968678136899
2.782,0.08282220577819058
2.7840000000000003,0.2015148134684963
2.786,0.20001532515627132
2.7880000000000003,0.1274337116994906
2.79,0.13213519747799787
2.7920000000000003,0.11301380176328187
2.794,0.07263695139996308
2.7960000000000003,0.01355479736069708
2.798,0.08724760384667454
2.8000000000000003,0.10294329639948409
2.802,0.1980967059955168
2.8040000000000003,0.1916460679858455
2.806,0.204060591808837
2.8080000000000003,0.1899722887113382
2.81,0.04071592391408865
2.8120000000000003,0.13690687299596702
2.814,0.022109232539499805
2.816,0.0876885382173318
2.818,0.1431354356993172
2.82,0.22235337654822002
2.822,0.1799096739383178
2.824,0.23523929169873503
2.826,0.19527294762618413
2.828,0.18101232147178556
2.83,0.15201125247837624
2.832,0.10052172949592093
2.834,0.17550602262643392
2.836,0.16330166520274475
2.838,0.22458183074944932
2.84,0.22521276393827833
2.842,0.2682755499125698
2.844,0.21388613073100543
2.846,0.2721601269923206
2.848,0.2599695781729154
2.85,0.2520191015387543
2.852,0.2644829883099683
2.854,0.24507356506629627
2.856,0.23596192316097553
2.858,0.3041020874930213
2.86,0.286345175726394
2.862,0.2924593352819463
2.864,0.36243494535972076
2.866,0.38831701811483477
2.868,0.40377025337141215
2.87,0.34544983264129847
2.872,0.4253798841468662
2.874,0.31574296718169625
2.876,0.28747435831759255
2.878,0.3783562806669416
2.88,0.354066975455044
2.882,0.393865730087701
2.884,0.46805565555407336
2.886,0.48086467074020656
2.888,0.5169440765765264
2.89,0.39079476887995296
2.892,0.43315893693047774
2.894,0.3269853577305001
2.896,0.38138430601450724
2.898,0.37838184825201515
2.9,0.36345507025573603
2.902,0.5487582037104606
2.904,0.4974547086895617
2.906,0.47459215938460625
2.908,0.4684245914196607
2.91,0.3684775096697946
2.912,0.3226193188010736
2.914,0.33842705718542926
2.916,0.3485562835892241
2.918,0.410918912622887
2.92,0.37469845752399106
2.922,0.4667413270856746
2.924,0.40563800583758247
2.926,0.39721056212962086
2.928,0.33460334557063
2.93,0.31169544459982945
2.932,0.26047143376003806
2.934,0.270962682433972
2.936,0.27894936977056706
2.938,0.2459529317197125
2.94,0.3600945592846938
2.942,0.25105973614200017
2.944,0.28549966818248784
2.946,0.278152562687845
2.948,0.2607185174704071
2.95,0.21955513443011043
2.952,0.20393796560370755
2.954,0.12761601010752796
2.956,0.19779758098835007
2.958,0.20733617613777888
2.96,0.10040335999669936
2.962,0.1903848203150199
2.964,0.14790532807754372
2.966,0.2008489927492541
2.968,0.2119058214079954
2.97,0.1274023925232156
2.972,0.09925903794292532
2.974,0.08757129535154339
2.976,0.071821141837581
2.978,0.056298843608766455
2.98,0.06651032224966735
2.982,0.12273351420646984
2.984,0.11782289192129558
2.986,0.1629079101124952
2.988,0.09773021812286531
2.99,0.1880958946379366
2.992,0.007208270873603269
2.994,-0.002386559854053916
2.996,-0.003590540200359019
2.998,-0.010246648755576411
3.0,0.046872717560243464
3.0020000000000002,0.15565655469904421
3.004,0.09647749735003537
3.0060000000000002,0.12800355460177798
3.008,0.11049048633721682
3.0100000000000002,0.04341633044307085
3.012,-0.013582514716039933
3.0140000000000002,-0.04399271860128316
3.016,0.009290147143169235
3.0180000000000002,0.0240499525728632
3.02,0.05729613133788081
3.0220000000000002,0.1179035085179577
3.024,0.1162945375439584
3.0260000000000002,0.05134989722112447
3.028,0.016592164232743806
3.0300000000000002,0.06914861739326086
3.032,-0.10238953411729629
3.0340000000000003,-0.003531114071224202
3.036,-0.05868255287711607
3.0380000000000003,-0.04514342921551563
3.04,-0.07427760892452512
3.0420000000000003,-0.044789058732882886
3.044,-0.04302047497863627
3.0460000000000003,-0.03581645735075628
3.048,-0.01619149230471705
3.0500000000000003,-0.03551783225415203
3.052,0.0011344477445961315
3.0540000000000003,-0.0073365690482153564
3.056,0.13121980932952954
3.0580000000000003,0.21963358835341007
3.06,0.45533038305322876
3.0620000000000003,0.5720149216680381
3.064,0.8111070879684416
3.0660000000000003,0.9708477776440612
3.068,1.0242565451200591
3.0700000000000003,1.0999969404199432
3.072,0.8724912881862406
3.074,0.7795802054911277
3.076,0.5252806408313753
3.078,0.40053743572148237
3.08,0.2545896927979806
3.082,0.17991506332137272
3.084,0.01717313389731983
3.086,-0.001818105856772072
3.088,0.007310583517472734
3.09,-0.1423620093520342
3.092,-0.1926337886097003
3.094,-0.24947057720276924
3.096,-0.26317614879201806
3.098,-0.2653196345746628
3.1,-0.14947929504736962
3.102,-0.06301782903335307
3.104,-0.006790931873388317
3.106,-0.04016307361452504
3.108,0.06838765204379675
3.11,-0.011364772382555968
3.112,-0.03025210419929704
3.114,-0.05521505133558259
3.116,-0.07516559403999493
3.118,0.049405629465270384
3.12,0.037556987922969784
3.122,0.03547736153805253
3.124,0.03826960954531758
3.126,0.07320977069900697
3.128,-0.007214785869313253
3.13,-0.03288056048464258
3.132,-0.04168134887789156
3.134,-0.03526313577663749
3.136,0.0015455280517259196
3.138,0.0109397281962613
3.14,0.004514905634731954
3.142,0.0426088326535469
3.144,0.018331807922785045
3.146,0.020236705541913227
3.148,0.01819277833223401
3.15,-0.024840609257469205
3.152,-0.0020002019451938434
3.154,-0.004645410936402968
3.156,-0.0395523578969052
3.158,-0.05111242317016497
3.16,0.02443319192846482
3.162,-0.004771966397291437
3.164,0.008410100182673349
3.166,0.06164116587732081
3.168,0.04108247272543666
3.17,0.016779484965468664
3.172,-0.009887180727713989
3.174,-0.0479277996963564
3.176,-0.12030840218473457
3.178,-0.010494656808514434
3.18,-0.07063904391343881
3.182,0.04105245977696953
3.184,-0.004341979851482436
3.186,0.08595531645618945
3.188,0.10513292921465617
3.19,-0.03750054723262719
3.192,-0.01886809243767488
3.194,-0.10037399829340843
3.196,-0.11601428610198818
3.198,-0.04760621250607966
3.2,-0.02489418944938535
3.202,0.05335669099949325
3.204,0.025891173828600123
3.206,0.0860686623305401
3.208,0.05442268138379734
3.21,-0.11254446456091556
3.212,-0.05379597273245631
3.214,-0.06054914766924885
3.216,-0.08842869120683987
3.218,-0.05054568557017712
3.22,0.0551019147140734
3.222,0.012405170847578209
3.224,0.017017181918611842
3.226,0.04076031267799094
3.228,0.009446987862788171
3.23,-0.06103562084428659
3.232,-0.07546453898441749
3.234,-0.04717880124490405
3.236,-0.04051123215062037
3.238,-0.0040703846056529824
3.24,-0.05037431738580064
3.242,0.003794094688229623
3.244,-0.009535909925254046
3.246,0.015295390322485884
3.248,-0.01974552107651067
3.25,-0.04358061432717272
3.2520000000000002,-0.04698704887277662
3.254,-0.015768452096565796
3.2560000000000002,-0.020530105031806578
3.258,-0.07225778797200288
3.2600000000000002,-0.07268745843829731
3.262,-0.03828087790034966
3.2640000000000002,0.0036154928081528655
3.266,-0.020549723679698637
3.2680000000000002,0.05684179961001806
3.27,0.010876021406037972
3.2720000000000002,-0.052934855721509355
3.274,-0.050805756030774044
3.2760000000000002,-0.12489596541186657
3.278,-0.07240028141239879
3.2800000000000002,-0.08142168216681488
3.282,0.006297204535839762
3.2840000000000003,0.037742973167006845
3.286,0.020966335857401184
3.2880000000000003,0.053543659301402674
3.29,-0.04805622242354312
3.2920000000000003,-0.04499461889279079
3.294,-0.14492615957530414
3.2960000000000003,-0.06114708712157783
3.298,-0.1095320701717985
3.3000000000000003,-0.04485020049956205
3.302,-0.0063243678904705315
3.3040000000000003,0.05094312648264481
3.306,0.03096880188393346
3.3080000000000003,0.02025806584167018
3.31,-0.039791422842484686
3.3120000000000003,-0.12371477573756803
3.314,-0.09679880658661458
3.3160000000000003,-0.11692999291285074
3.318,-0.0031482942872647635
3.3200000000000003,0.0029139777428038097
3.322,0.02295998994771274
3.3240000000000003,-0.00514448579621388
3.326,-0.01776635527081812
3.3280000000000003,-0.0771123728258625
3.33,-0.12679841213885712
3.332,-0.13831893932605424
3.334,-0.21407138478635718
3.336,-0.14819403360734884
3.338,-0.08754008364213306
3.34,-0.07903486599841815
3.342,-0.07239768455939641
3.344,-0.06787624250210651
3.346,0.003820211270795029
3.348,0.0004033589707541658
3.35,0.11038668930959326
3.352,0.29418954610699477
3.354,0.4061880140967567
3.356,0.5665198827750574
3.358,0.7887138060713411
3.36,0.9315952731547593
3.362,1.033411080326335
3.364,1.0573979050322635
3.366,0.9490456459852323
3.368,0.8716463572455926
3.37,0.6754099680835752
3.372,0.4447067104427485
3.374,0.2942550859907284
3.376,0.15456750042590794
3.378,0.03664862138371603
3.38,-0.02971391634345917
3.382,0.07681027815320807
3.384,-0.04287719669812122
3.386,0.060526144652827935
3.388,-0.005999852235406777
3.39,0.018982469169554893
3.392,-0.03592907391361329
3.394,-0.06304075460335266
3.396,-0.020862633262785826
3.398,0.04124584978488426
3.4,0.12358924180210654
3.402,0.2850480520698291
3.404,0.31398587311461207
3.406,0.29931135244312773
3.408,0.3127759133406071
3.41,0.20021325878206014
3.412,0.21835968540274786
3.414,0.22222796757472735
3.416,0.19113659520208626
3.418,0.2532784309428232
3.42,0.33391999675343265
3.422,0.32591711344349394
3.424,0.34616173206889395
3.426,0.3591383929880516
3.428,0.31913093372752777
3.43,0.22122684253348146
3.432,0.26977109201300636
3.434,0.23081894014203033
3.436,0.24269529266899703
3.438,0.3215763213477178
3.44,0.32508856256739493
3.442,0.2445554995278262
3.444,0.3219882844453799
3.446,0.2591404416956313
3.448,0.26767586763703266
3.45,0.24060908816254115
3.452,0.20944656309438897
3.454,0.25453060839471
3.456,0.2158934345797005
3.458,0.18689567811114938
3.46,0.15756689387257108
3.462,0.2204691985124101
3.464,0.18479460937078232
3.466,0.20598815474974097
3.468,0.23953275928222156
3.47,0.19401408381627866
3.472,0.11864736566958743
3.474,0.05413330670959322
3.476,0.06767374886912189
3.478,0.08644951211683535
3.48,0.07793533733059795
3.482,0.024071579779161453
3.484,0.16514282504997796
3.486,0.139365771812135
3.488,0.13810454971690117
3.49,0.0500455771700043
3.492,0.05581728157855171
3.494,-0.0917856404449593
3.496,-0.07620035187641803
3.498,-0.023374994725420577
3.5,0.019355974875380384
3.5020000000000002,0.05259599970522831
3.504,0.11174700959071784
3.5060000000000002,0.050683458195588005
3.508,0.041547146677915654
3.5100000000000002,-0.018058388490540103
3.512,-0.0613370505542391
3.5140000000000002,-0.14427890448471817
3.516,-0.09468155740789747
3.5180000000000002,-0.012187373492758877
3.52,-0.011263834398754294
3.5220000000000002,0.021647149107358522
3.524,0.04423348435569844
3.5260000000000002,-0.04040150705794203
3.528,-0.04471080482884307
3.5300000000000002,-0.05442912223148482
3.532,-0.09875991940320376
3.5340000000000003,-0.11534774285411514
3.536,-0.053320788116292483
3.5380000000000003,-0.077773616917511
3.54,0.008215667748274938
3.5420000000000003,-0.0452790132471155
3.544,-0.0303777280901791
3.5460000000000003,-0.02517527558050738
3.548,-0.030432073021887326
3.5500000000000003,-0.07175095500283532
3.552,-0.054905523295556605
3.5540000000000003,-0.0872222963182517
3.556,-0.08646172321770582
3.5580000000000003,-0.04449362123960767
3.56,-0.08149840814744037
3.5620000000000003,-0.05531579912278878
3.564,-0.09601400660733046
3.5660000000000003,0.03367441173937303
3.568,-0.026599902901536125
3.5700000000000003,-0.008276736861256781
3.572,-0.10811741209998668
3.5740000000000003,-0.09530094108617045
3.576,-0.09166651381455546
3.5780000000000003,-0.07752066636146696
3.58,-0.1514161728129043
3.5820000000000003,-0.00762901386991343
3.584,-0.014318088518834322
3.586,-0.017804766924319114
3.588,0.006977205812430984
3.59,-0.0227347878388647
3.592,-0.08657164755717398
3.594,-0.10001583175992745
3.596,-0.16839314955049228
3.598,-0.04198066047299681
3.6,-0.13230866507680517
3.602,0.059396235996033386
3.604,0.009596221692204126
3.606,0.047068263277505
3.608,-0.09208851547225527
3.61,-0.008416131982246881
3.612,-0.10940248420042804
3.614,-0.1479434028133731
3.616,-0.07454595218294652
3.618,-0.055926396702670966
3.62,-0.015935401339277913
3.622,0.03545487751063391
3.624,0.012489614363415145
3.626,-0.011649668881026507
3.628,-0.06229237420800832
3.63,-0.023648875325909445
3.632,-0.07143877406004628
3.634,-0.08842132593085897
3.636,0.02305182804282368
3.638,-0.03775973296284951
3.64,-0.01607973982656313
3.642,0.014663498684710974
3.644,0.037363055007751084
3.646,-0.011721652481134302
3.648,0.052905477725495184
3.65,0.002720510994263809
3.652,-0.043656568288504276
3.654,0.04256470662647395
3.656,0.021508907126940008
3.658,0.04933964986439941
3.66,0.00045038248220828636
3.662,0.04542462909061469
3.664,0.10511860440784876
3.666,0.13141780264992564
3.668,0.1430880455693468
3.67,0.07583055600734982
3.672,0.15397435114301083
3.674,0.06659259221625145
3.676,0.07929612773481022
3.678,0.07979674456981609
3.68,0.0984593016547182
3.682,0.19969419042879996
3.684,0.23616785142736332
3.686,0.26111011276490875
3.688,0.21377492883317054
3.69,0.22171795555999052
3.692,0.20653047080971756
3.694,0.1545348902285585
3.696,0.14094135501029836
3.698,0.23357291278614084
3.7,0.21238428326436354
3.702,0.33210456225982976
3.704,0.35189389723067205
3.706,0.35526422349094705
3.708,0.31361462886434777
3.71,0.25263337264140706
3.712,0.22819102955409398
3.714,0.1982025534694384
3.716,0.30808545366870443
3.718,0.27981110871369963
3.72,0.32836198133649686
3.722,0.35800529104132905
3.724,0.365234145037015
3.726,0.34269012622339495
3.728,0.3192809290299622
3.73,0.2668774557966505
3.732,0.27137078420408545
3.734,0.23593348631841735
3.736,0.2696253778424725
3.738,0.29192449675576243
3.74,0.33866793918498717
3.742,0.27500964379706216
3.744,0.299318503415553
3.746,0.2540411197095327
3.748,0.29590233347623823
3.75,0.19563701874405715
3.7520000000000002,0.22618500479133372
3.754,0.2007478840828463
3.7560000000000002,0.18413553787052478
3.758,0.18199420605055
3.7600000000000002,0.18199137231666335
3.762,0.23182586043426673
3.7640000000000002,0.17053017958042874
3.766,0.2297789810169078
3.7680000000000002,0.1605267511377685
3.77,0.19926533422234322
3.7720000000000002,0.09118402230662132
3.774,0.12654269783643013
3.7760000000000002,0.042381856376192344
3.778,0.04564449207813092
3.7800000000000002,0.0976765211743211
3.782,0.12668564055114492
3.7840000000000003,0.1005117801875099
3.786,0.1514813100189621
3.7880000000000003,0.10259802181715842
3.79,0.07070764946610003
3.7920000000000003,0.024395981412363977
3.794,0.0018143769848013996
3.7960000000000003,-0.06130381310317935
3.798,-0.0344960991265941
3.8000000000000003,0.04846647646996151
3.802,0.07247095589868285
3.8040000000000003,0.08764955265780278
3.806,0.10505609568591188
3.8080000000000003,0.07363086180367534
3.81,-0.04041402198699125
3.8120000000000003,-0.03932635045436042
3.814,-0.09186009822541033
3.8160000000000003,-0.03397563111661664
3.818,-0.034226134022800586
3.8200000000000003,0.061025198089930274
3.822,0.047525008273360723
3.8240000000000003,0.06992536596299274
3.826,0.012953558150339384
3.8280000000000003,-0.002868710651005902
3.83,-0.06501448667951318
3.8320000000000003,-0.0013149454288905321
3.834,-0.08121000935658841
3.8360000000000003,-0.02496418789475938
3.838,-0.07017461832737096
3.84,0.060236625715206965
3.842,0.016625432313710973
3.844,0.004120821501776659
3.846,0.014570830727000923
3.848,0.02334732141163261
3.85,0.0013376716132910936
3.852,-0.06381606730440913
3.854,-0.006346518617462479
3.856,-0.04956315413988036
3.858,-0.048580136217582226
3.86,-0.02499942238034977
3.862,-0.008094220257034466
3.864,0.01951015646477833
3.866,0.0190598941677837
3.868,0.08142443711173059
3.87,-0.013114688616574305
3.872,-0.0030092805621294468
3.874,-0.032364253285747324
3.876,-0.03258832954977281
3.878,-0.09533258053458063
3.88,-0.01720904277605128
3.882,-0.02491449525022646
3.884,0.05728695849061384
3.886,0.06761237424685672
3.888,0.11249207227544036
3.89,-0.002069921577225329
3.892,-0.011108637160407775
3.894,-0.1310203120292721
3.896,-0.10015390487150322
3.898,-0.0017493640484249617
3.9,-0.00959684114974067
3.902,0.0740982914398914
3.904,0.055205168996643975
3.906,0.09898500309429886
3.908,0.04339387565416033
3.91,-0.03925014143989841
3.912,-0.07718888302920146
3.914,-0.03568806226225406
3.916,-0.0143341492025452
3.918,-0.06572676448824179
3.92,0.045386615271766205
3.922,0.08245161470466254
3.924,0.039533847099717745
3.926,0.045865458322442335
3.928,0.016895920884556194
3.93,-0.00824013759073873
3.932,-0.047026182565146776
3.934,-0.02167594552981207
3.936,-0.00658075457141059
3.938,-0.018538148895227008
3.94,0.06401652815831287
3.942,0.058611520901890236
3.944,0.01618291236598961
3.946,-0.0028687552936130373
3.948,0.04722679043466931
3.95,0.0002895497577975262
3.952,-0.0006399456349476928
3.954,0.004596785032980905
3.956,-0.03816296029274558
3.958,0.056041688398699184
3.96,-0.005005482357788502
3.962,0.0035340348696334227
3.964,0.019670995798955294
3.966,0.07566089310415347
3.968,0.07405072009154381
3.97,0.05440752885727811
3.972,0.02115039164750097
3.974,0.0018800075138411289
3.976,-0.0772094993513904
3.978,-0.021369245999705962
3.98,-0.007382215384574216
3.982,0.05794511637020776
3.984,0.05764792892844565
3.986,0.09007822073942177
3.988,0.08055919256810348
3.99,0.03806394414492353
3.992,0.033272230505398154
3.994,-0.06442957297990137
3.996,-0.009989561512144043
3.998,-0.08435109173121164
4.0,0.01969846756013325
4.002,0.1266418510464266
4.0040000000000004,0.0704372456031237
4.006,0.1185324397645815
4.008,0.10982043601909207
4.01,-0.027953044341671295
4.0120000000000005,-0.050028631846127006
4.014,-0.009501834389763895
4.016,-0.0014132690313780963
4.018,0.038623450999800454
4.0200000000000005,0.05693382797361088
4.022,0.0739735560234985
4.024,0.058634308493447536
4.026,0.09466467531947412
4.0280000000000005,0.059309205537986694
4.03,0.03318813378704279
4.032,-0.0370653042526834
4.034,0.0054606488682480995
4.0360000000000005,0.015662020646577037
4.038,0.056261925709713625
4.04,0.05143079715032211
4.042,0.044752300047494226
4.0440000000000005,0.09081840824552466
4.046,0.05006441870569797
4.048,0.04125545900493723
4.05,0.008387205594927366
4.0520000000000005,0.10371057343042187
4.054,0.008362233049689936
4.056,0.019381802864267873
4.058,-0.02044352054043676
4.0600000000000005,0.08397870418645076
4.062,-0.005691674722219403
4.064,0.0660366662547736
4.066,0.12546513119227876
4.0680000000000005,0.05717315322069383
4.07,0.10346777776339372
4.072,0.07450566407249243
4.074,0.03467534994368282
4.0760000000000005,-0.06253139445549208
4.078,-0.013385681733131519
4.08,0.025235117667003617
4.082,0.08789747329976964
4.0840000000000005,0.11147280845414687
4.086,0.10085028671998059
4.088,0.10480061767385708
4.09,0.08429703242430296
4.0920000000000005,0.040809614305636344
4.094,-0.005153963107646039
4.096,-0.05797000892933896
4.098,0.043190095938564085
4.1,0.03253108848366657
4.102,0.10206023838219527
4.104,0.19556291414970817
4.106,0.08391036935527915
4.108,0.11241450086672251
4.11,0.04408037036872092
4.112,0.020179658990909746
4.114,-0.01378293708166426
4.116,-0.03772030720879931
4.118,0.052732861338529356
4.12,0.05166143542931985
4.122,0.05590630247607935
4.124,0.03999002869162895
4.126,-0.005878429938648622
4.128,-0.01013975782182044
4.13,-0.07002278001754042
4.132,-0.0590327579993451
4.134,-0.06743005375296701
4.136,-0.05548863107498102
4.138,0.030040458549033117
4.14,0.030353511460317773
4.142,-0.0023752784772603057
4.144,0.23443584880966808
4.146,0.2728732469837357
4.148,0.4544065550840228
4.15,0.5980245722436088
4.152,0.7614232452113214
4.154,0.8960727513929705
4.156,0.950777443934997
4.158,0.9851970790336939
4.16,0.8698061770745354
4.162,0.6978706663860308
4.164,0.777030605526328
4.166,0.729009397067281
4.168,0.7187639716399165
4.17,0.6439639993033975
4.172,0.735181858831492
4.174,0.8555350891958652
4.176,0.8236612528547324
4.178,0.855885505692478
4.18,0.8042170041552817
4.182,0.6771925887888037
4.184,0.5327683204674929
4.186,0.39723366959180767
4.188,0.2414150764198484
4.19,0.1725602264038169
4.192,-0.09719114307994463
4.194,-0.14178805109463896
4.196,-0.105194426926172
4.198,-0.1071802445512533
4.2,-0.09376243183329877
4.202,-0.0490305482420417
4.204,-0.08586819081533048
4.206,-0.03076832737051732
4.208,-0.05578356004082095
4.21,-0.12160488850861022
4.212,-0.04273344552591488
4.214,-0.10503170988829652
4.216,0.018102530211059027
4.218,0.09952508257260707
4.22,0.09367147034713494
4.222,0.12450830272770588
4.224,0.1658305596359018
4.226,0.09109398265725291
4.228,0.0767972973404461
4.23,0.08620057967469956
4.232,0.0602799725609051
4.234,0.10300955153139019
4.236,0.04923017557925291
4.238,0.078515597803043
4.24,0.11277169006795214
4.242,0.10963057803067658
4.244,0.08648144974648087
4.246,0.15130560064073353
4.248,0.06488700553403107
4.25,0.11917902717546056
4.252,0.05438220806515969
4.2540000000000004,0.11553434778351605
4.256,0.025692657738510705
4.258,0.06992888425503724
4.26,0.11657027892589338
4.2620000000000005,0.044782842519110876
4.264,0.16412336024545465
4.266,0.10010867183774178
4.268,0.17138528717796364
4.2700000000000005,0.1172401937515764
4.272,0.09761998628639272
4.274,0.0582969883358236
4.276,0.07643063718182533
4.2780000000000005,0.027893444375453075
4.28,0.06755544235556726
4.282,0.1072045139050892
4.284,0.1460010842916772
4.2860000000000005,0.18844660998133303
4.288,0.1424752284958651
4.29,0.09842834865409451
4.292,0.11556639504849173
4.2940000000000005,-0.007445711773478109
4.296,0.04555202597139432
4.298,0.07549523894835533
4.3,0.050730168213097386
4.3020000000000005,0.18605495444745695
4.304,0.14244785016375794
4.306,0.18793017632798778
4.308,0.14915066840799518
4.3100000000000005,0.04826992605938037
4.312,0.06502597198721641
4.314,0.047347994900502954
4.316,0.03301282217283885
4.3180000000000005,0.07359896747996039
4.32,0.1448229907585746
4.322,0.22085713757414638
4.324,0.1371746070840432
4.3260000000000005,0.10125595586004363
4.328,0.14479649418614876
4.33,0.053167367949611063
4.332,0.11386308011429709
4.3340000000000005,0.042208301313827766
4.336,0.06494425852618964
4.338,0.14008032938068654
4.34,0.10367775322381682
4.3420000000000005,0.14278060097938092
4.344,0.11880956697928587
4.346,0.11064439088252719
4.348,0.13613998228275787
4.3500000000000005,0.05041132829481677
4.352,0.16271993732701528
4.354,0.08078679267827399
4.356,0.11713840399057507
4.358,0.09340854826050352
4.36,0.05681165197339482
4.362,0.13620095418838352
4.364,0.1442953841214805
4.366,0.11423490240318399
4.368,0.15862278553240192
4.37,0.14615546788407566
4.372,0.11682962834685433
4.374,0.044964502638419356
4.376,0.048849729209530096
4.378,0.09884063435399379
4.38,0.06416300771281654
4.382,0.12460010346017147
4.384,0.18026345234492744
4.386,0.1620881888022951
4.388,0.1745927847893476
4.39,0.14130956382233986
4.392,0.09128795198088384
4.394,0.06217343564860783
4.396,0.02722251871895384
4.398,0.07849037981508891
4.4,0.11746461440748475
4.402,0.1788852977753638
4.404,0.19452398795206746
4.406,0.1930036857707296
4.408,0.16925253466032283
4.41,0.08444366521545482
4.412,0.06608054519102344
4.414,0.055807249503760585
4.416,0.096113192255004
4.418,0.08071533083811697
4.42,0.2124341730483816
4.422,0.16745618201741633
4.424,0.22134937218234768
4.426,0.17854947901419202
4.428,0.16972727455851847
4.43,0.11736204051297328
4.432,0.13756378063688923
4.434,0.12228177560887105
4.436,0.1571606397679466
4.438,0.16561743600541592
4.44,0.23318910752829639
4.442,0.21534972101870511
4.444,0.20174723492088104
4.446,0.25035602700930354
4.448,0.2206591472522166
4.45,0.22704594086626842
4.452,0.2788686291174981
4.454,0.20339084091581772
4.456,0.3219733826599268
4.458,0.21747061754864688
4.46,0.30090326220809094
4.462,0.25841607087275964
4.464,0.3742212529259525
4.466,0.41769316291627767
4.468,0.33163853627844236
4.47,0.46271301121042335
4.472,0.39787014000416643
4.474,0.3576806503010413
4.476,0.3593087554715895
4.478,0.4274113392916622
4.48,0.49024986412922644
4.482,0.45370570610855165
4.484,0.5808480651011275
4.486,0.5960595952210191
4.488,0.6316109914589432
4.49,0.5685369390570029
4.492,0.5910033974864732
4.494,0.5473661890931762
4.496,0.5279351465838377
4.498,0.5888670095422038
4.5,0.6648250284705601
4.502,0.6958735899907784
4.5040000000000004,0.7703347758818571
4.506,0.7805423842389672
4.508,0.8024581208382409
4.51,0.7123476490047671
4.5120000000000005,0.6794988078559001
4.514,0.6738476567404112
4.516,0.7016744789248371
4.518,0.8158355082759399
4.5200000000000005,0.7752013112733811
4.522,0.8432026272375212
4.524,0.8699514759861812
4.526,0.7754153567279608
4.5280000000000005,0.8376891552425154
4.53,0.7686343999153383
4.532,0.7184813457789205
4.534,0.7395652431238168
4.5360000000000005,0.7801417459683049
4.538,0.7373497141525771
4.54,0.7743325697233565
4.542,0.7773744881965754
4.5440000000000005,0.7389626910868722
4.546,0.7412577436247589
4.548,0.7474737685825196
4.55,0.6695242773501725
4.5520000000000005,0.6616523199360609
4.554,0.6444155273697788
4.556,0.6567079733612684
4.558,0.5643544699325672
4.5600000000000005,0.5947530166668483
4.562,0.5461013700336391
4.564,0.6260399297782652
4.566,0.5621644249330391
4.5680000000000005,0.5851314466873057
4.57,0.5461508261678109
4.572,0.4440141567105485
4.574,0.3949940810312182
4.5760000000000005,0.4318261190661348
4.578,0.3742176372021441
4.58,0.3508788699833569
4.582,0.446591960819069
4.5840000000000005,0.4033501657773457
4.586,0.4411975770854414
4.588,0.3632792915928427
4.59,0.33677503087175814
4.5920000000000005,0.2872355993957738
4.594,0.1569828820650497
4.596,0.2493360767379301
4.598,0.2455386895269223
4.6000000000000005,0.2131824268884363
4.602,0.31027080185699274
4.604,0.33556812830474714
4.606,0.23406652816305923
4.6080000000000005,0.2370574391328626
4.61,0.15612373675513644
4.612,0.19708623838196643
4.614,0.07400274023790834
4.616,0.10460898119396135
4.618,0.17520954591347196
4.62,0.1920342588098919
4.622,0.2236256671725735
4.624,0.18104098453062997
4.626,0.19980615607458593
4.628,0.11761481379370779
4.63,0.116313446430649
4.632,0.0798969601336861
4.634,0.07529998238537153
4.636,0.12069291293312322
4.638,0.09505123716830412
4.64,0.15069009452581292
4.642,0.14642351591859068
4.644,0.13218545813719282
4.646,0.09286609183056527
4.648,0.1655509771685298
4.65,0.114893210883402
4.652,0.07251988779275244
4.654,0.08906318746432083
4.656,0.06595141946728045
4.658,0.12127329759383344
4.66,0.05955940953161809
4.662,0.09911512894446645
4.664,0.13682382849897987
4.666,0.16481356066620775
4.668,0.07999788694969458
4.67,0.13113849712307468
4.672,0.09300998506140921
4.674,0.10804885976740401
4.676,-0.011804771492784208
4.678,0.07055932520449859
4.68,0.028686662041406213
4.682,0.09280926672106904
4.684,0.23553735850997828
4.686,0.1333524341812694
4.688,0.1605154773958513
4.69,0.09071453697272625
4.692,0.04751980069286043
4.694,0.03030240431825132
4.696,-0.004626292502348084
4.698,0.08157897052195955
4.7,0.047073202747179146
4.702,0.18064412229767926
4.704,0.150345787912332
4.706,0.1725762607364607
4.708,0.12256203166761588
4.71,0.04161919115345004
4.712,0.06742147740257926
4.714,0.008795440197935916
4.716,0.019129796688706388
4.718,0.07785002408545222
4.72,0.11405737463033283
4.722,0.09861061281470294
4.724,0.17903399706417966
4.726,0.08942901231277231
4.728,0.11440680743080754
4.73,0.007770799096986379
4.732,0.08274671320418109
4.734,0.07329573632033344
4.736,0.008615058648504322
4.738,0.127744774032531
4.74,0.0958599543105304
4.742,0.059319960940900224
4.744,0.1312219627279104
4.746,0.11355401652583358
4.748,0.09160720842738239
4.75,0.0895716035044031
4.752,0.06857306611345591
4.7540000000000004,0.021831326545921653
4.756,0.052818144101424644
4.758,0.06622708880471811
4.76,0.0718418575078566
4.7620000000000005,0.07767783538094793
4.764,0.057133700983062766
4.766,0.18576930256841795
4.768,0.03991613049179536
4.7700000000000005,0.10746782410464814
4.772,0.09150270168422829
4.774,0.031224095330681878
4.776,-0.01629515901831492
4.7780000000000005,0.032754039710814434
4.78,0.05435592704034934
4.782,0.08326689414567467
4.784,0.12668451397173072
4.7860000000000005,0.11115722657171186
4.788,0.15869238986670386
4.79,0.06539158703475492
4.792,0.08262861762028745
4.7940000000000005,-0.04888688292179835
4.796,0.02816780439611752
4.798,-0.017628243323544054
4.8,0.09407921320482962
4.8020000000000005,0.08826295991829407
4.804,0.14148006810861918
4.806,0.13079932581846365
4.808,0.11666419728625753
4.8100000000000005,0.029178916809113654
4.812,-0.004466692441502382
4.814,-0.011946334062445814
4.816,0.025277869398653743
4.8180000000000005,0.04147509108823626
4.82,0.08151760933678832
4.822,0.1388961016739897
4.824,0.10331553490700796
4.8260000000000005,0.077388564641599
4.828,0.08125707697227881
4.83,0.028566019748046817
4.832,0.02447052646408092
4.8340000000000005,-0.01735212843090727
4.836,0.0652553780394605
4.838,0.049224971438361804
4.84,0.037097811175593756
4.8420000000000005,0.08419977535664669
4.844,0.09559183754577627
4.846,0.05706714843168444
4.848,0.04901139817451895
4.8500000000000005,0.0738088197437028
4.852,0.015125477625483191
4.854,0.044277269147998614
4.856,0.023475989198376963
4.8580000000000005,0.04255173299896424
4.86,0.010207707225986958
4.862,0.015273053548542533
4.864,0.1304210321215562
4.866,0.08330865277333543
4.868,0.016715401798532703
4.87,0.09347200099565825
4.872,0.03407134121920138
4.874,-0.003938514695693753
4.876,0.015724518998689783
4.878,-0.015579033805608619
4.88,-0.0008074110021732746
4.882,0.04630174158305836
4.884,0.11931953194501987
4.886,0.09875724108707325
4.888,0.07500907309651411
4.89,0.06643892995012524
4.892,0.0049844921930940304
4.894,-0.014359553606641037
4.896,-0.06443896619031741
4.898,0.011481681710586781
4.9,0.060081380864069146
4.902,0.045204059036838204
4.904,0.10415404840305126
4.906,0.08701128740294908
4.908,0.052291504003000894
4.91,0.06462102494841857
4.912,-0.06379411930301182
4.914,-0.03277284532559431
4.916,-0.0007793575382971235
4.918,-0.008867708496495751
4.92,0.09642095839318708
4.922,0.03442913111130819
4.924,0.10863450690912349
4.926,0.03309921566707178
4.928,0.038862458353483176
4.93,0.010639929212491248
4.932,-0.017781855464847604
4.934,-0.012727674907723571
4.936,0.010303042692711798
4.938,0.02479595129733122
4.94,0.03935812748116592
4.942,0.01806184260827206
4.944,0.06441518262131148
4.946,0.024335369936393382
4.948,0.013955419729683383
4.95,0.005901922152319794
4.952,0.00780937026253904
4.954,0.04040901501145995
4.956,-0.01950399272022228
4.958,-0.0639528609372137
4.96,0.03511613212335034
4.962,-0.012306914106453376
4.964,0.07473922451143794
4.966,0.00477447655135306
4.968,0.09748138149918864
4.97,0.005362536043250252
4.972,0.03980781194302835
4.974,-0.03324462998912583
4.976,-0.09711611458327979
4.978,-0.02060849511732201
4.98,-0.04274448983667053
4.982,0.03824521637561554
4.984,0.06553053589549508
4.986,0.1032004402437089
4.988,0.04637616855339989
4.99,0.027362417424050555
4.992,-0.025483605721889502
4.994,-0.08372739044842864
4.996,-0.07976662302800518
4.998,-0.04307922475305885
5.0,0.0211503840934873
5.002,0.02441076051096229
5.0040000000000004,0.11302984267872314
5.006,0.011947551751037996
5.008,0.04749170036920898
5.01,0.0029126447395121206
5.0120000000000005,-0.08139167363986337
5.014,-0.06769171127318202
5.016,-0.04527284556829866
5.018,-0.08174173488756105
5.0200000000000005,0.0421132448293311
5.022,0.0764151215584542
5.024,0.06517650835096633
5.026,-0.028535659403647662
5.0280000000000005,0.025127014603441807
5.03,-0.04531675853892694
5.032,-0.05759216601528346
5.034,-0.019896007220683527
5.0360000000000005,-0.062154193757724824
5.038,0.009176648849027217
5.04,0.002651804730783521
5.042,0.008242668005848351
5.0440000000000005,-0.036624259388437885
5.046,0.013511654968244632
5.048,0.024173589325322053
5.05,-0.06886931477383447
5.0520000000000005,-0.05151885888470663
5.054,-0.17038313657534612
5.056,-0.1045272862401859
5.058,-0.1289237061233903
5.0600000000000005,-0.14289275002990728
5.062,-0.11174557901687113
5.064,-0.09054900464668693
5.066,-0.038363723623314895
5.0680000000000005,-0.08712652883312297
5.07,-0.01879642387583779
5.072,-0.07921241010928409
5.074,0.09329263428206148
5.0760000000000005,0.15849940072920385
5.078,0.2831722088657196
5.08,0.5096657365842441
5.082,0.7329168471991498
5.0840000000000005,0.9120325908803386
5.086,1.0336983498240153
5.088,1.0382702744964
5.09,0.8740026156165147
5.0920000000000005,0.7246432411173838
5.094,0.46690631184711895
5.096,0.3588121849776709
5.098,0.12898454739470688
5.1000000000000005,0.1345284705556114
5.102,0.014034785619508834
5.104,-0.03987912344663097
5.106,-0.1099583728346245
5.1080000000000005,-0.13674803932796212
5.11,-0.2721542755006797
5.112,-0.3207217462852352
5.114,-0.243694337367794
5.1160000000000005,-0.276836416155262
5.118,-0.23975780862218177
5.12,-0.17701792069683178
5.122,-0.038173711457597584
5.124,-0.11259995396123335
5.126,-0.047094099719635865
5.128,-0.02156727289272405
5.13,-0.08199778689636113
5.132,-0.09848131507547202
5.134,-0.07358591760268667
5.136,-0.07182969273004051
5.138,-0.063078259556308
5.14,-0.026111548084933055
5.142,0.017509798586729537
5.144,0.0018184205798003096
5.146,-0.08416587863158076
5.148,-0.007264912040139293
5.15,-0.14209578329670733
5.152,0.026206422442980465
5.154,-0.12659659672704593
5.156,-0.06381546319428322
5.158,-0.030353387713410715
5.16,-0.05436275130797365
5.162,-0.06441757523690271
5.164,-0.041740432432851554
5.166,-0.04016126852554146
5.168,0.00018327785696244624
5.17,-0.03508381226367532
5.172,-0.057590487489906805
5.174,-0.08184515453730462
5.176,-0.10043399512635812
5.178,-0.1457961200227596
5.18,-0.09435194952694785
5.182,-0.06443679657919951
5.184,0.003309283203502454
5.186,0.061059080461669905
5.188,-0.026160844325122987
5.19,-0.03764910912482707
5.192,-0.11027196912070938
5.194,-0.1663517953039771
5.196,-0.10075355829800817
5.198,-0.12366008080075873
5.2,-0.07542814914004861
5.202,-0.0038019572356731302
5.204,-0.015596908977419516
5.206,0.048368146623454254
5.208,-0.005175615545795459
5.21,-0.13461549521280636
5.212,-0.12900986676878726
5.214,-0.12348615987389934
5.216,-0.10996557247624805
5.218,-0.11029038390971659
5.22,-0.004514585049178371
5.222,-0.05626652162047138
5.224,-0.0005367783247516109
5.226,-0.022000937647152934
5.228,-0.09621781837738362
5.23,-0.07369280473523238
5.232,-0.1452885791035055
5.234,-0.13797904463183686
5.236,-0.08749341035915378
5.238,-0.053595140846478685
5.24,-0.046857374089081236
5.242,-0.06941980814841506
5.244,-0.041430046913911785
5.246,-0.08741668475910362
5.248,-0.03874262359664014
5.25,-0.07954906391761413
5.252,-0.13005065643644276
5.2540000000000004,-0.07698752524205638
5.256,-0.08235404506965963
5.258,-0.11643896677666138
5.26,-0.13028115884977387
5.2620000000000005,-0.05952159833263697
5.264,-0.044782917136069536
5.266,-0.04999316183998713
5.268,-0.058744600766511126
5.2700000000000005,-0.012597424627780539
5.272,-0.0865551573413693
5.274,-0.11701114449110005
5.276,-0.16631618869278325
5.2780000000000005,-0.14339544335172355
5.28,-0.13775732351668415
5.282,0.00962196121540626
5.284,-0.09168325901138308
5.2860000000000005,-0.03266244552595144
5.288,-0.0011222093566585004
5.29,-0.07895929212028385
5.292,-0.09446739637381091
5.2940000000000005,-0.17972184391454055
5.296,-0.16775422833094653
5.298,-0.1558485453852688
5.3,-0.0703062153847547
5.3020000000000005,-0.045247697418899266
5.304,-0.010982096343336968
5.306,-0.0589056526125184
5.308,0.005023553618318147
5.3100000000000005,-0.11295124872830249
5.312,-0.2094909838607468
5.314,-0.12754655421799957
5.316,-0.15138050307744683
5.3180000000000005,-0.12449525295778123
5.32,-0.07177408499426902
5.322,-0.021771333357246254
5.324,-0.05609261154822392
5.3260000000000005,-0.03709668344010928
5.328,-0.08486329711651386
5.33,-0.09856271832599565
5.332,-0.1647969218898176
5.3340000000000005,-0.10651429595854889
5.336,-0.12335814162938712
5.338,-0.0898649316585424
5.34,-0.07871621582615591
5.3420000000000005,-0.045731312724633585
5.344,-0.0667491927180686
5.346,-0.040833122480531225
5.348,-0.13110467718895902
5.3500000000000005,-0.03172881933222464
5.352,-0.11183226859812168
5.354,-0.09523751531849872
5.356,-0.10388836560906316
5.3580000000000005,-0.0913177979603474
5.36,-0.08532739081411164
5.362,-0.04441076209337472
5.364,-0.09174915680630123
5.3660000000000005,0.03904212973581495
5.368,-0.024378518327757892
5.37,-0.03359305036075475
5.372,-0.06357218168769524
5.3740000000000006,-0.07317251463839763
5.376,-0.08796851173318174
5.378,-0.029408743056632408
5.38,-0.08885931458916503
5.382,-0.009398401210684571
5.384,0.0412543633694434
5.386,0.15311935590863962
5.388,0.008517222512850808
5.39,0.0456341693312492
5.392,-0.023312709087427278
5.394,-0.02769571067254866
5.396,-0.005461774090202539
5.398,-0.04863459973742187
5.4,0.10162055429558867
5.402,0.09338281208724455
5.404,0.20867968884721372
5.406,0.17029853639992346
5.408,0.1565231228509364
5.41,0.08497045110573435
5.412,0.06656929955636044
5.414,0.07099812095247456
5.416,0.07420949121450873
5.418,0.18091597136378948
5.42,0.14588940532348432
5.422,0.23379944709717226
5.424,0.2793485305369692
5.426,0.19480336118496058
5.428,0.22002153557794263
5.43,0.21003587854723266
5.432,0.16186743735523554
5.434,0.180833244610887
5.436,0.187662230527711
5.438,0.25094221902636843
5.44,0.26922515402661373
5.442,0.22314390939513623
5.444,0.24826113775045147
5.446,0.2933619522987163
5.448,0.2333894935631436
5.45,0.24281486756730372
5.452,0.20851410894142158
5.454,0.22671913635550894
5.456,0.17172431174316025
5.458,0.21261611188134977
5.46,0.1786305350956532
5.462,0.2690411101207704
5.464,0.19972517658086486
5.466,0.22295854698118328
5.468,0.24628196855100776
5.47,0.22678294111738562
5.472,0.1614650518540491
5.474,0.1429833126609814
5.476,0.07250292086592947
5.478,0.09393411775310706
5.48,0.09635777053840247
5.482,0.1279408356963206
5.484,0.18586691033355082
5.486,0.20758483843881081
5.488,0.17142865531556378
5.49,0.05579783648394306
5.492,0.009070895773250268
5.494,0.024133279011901806
5.496,-0.03355643346501232
5.498,-0.037234075620036465
5.5,0.05240971926654224
5.502,0.09472827728072448
5.5040000000000004,0.07817649410612836
5.506,0.09509309138002423
5.508,0.0009199428119342629
5.51,0.009429373792106163
5.5120000000000005,-0.1284369700864204
5.514,-0.06720001862538573
5.516,-0.1263156750080786
5.518,-0.013517398664441002
5.5200000000000005,-0.03946186028967387
5.522,0.01808980322799151
5.524,-0.027233690650785417
5.526,-0.03466376092513118
5.5280000000000005,-0.0330532786383453
5.53,-0.15229918340618165
5.532,-0.08579305797129519
5.534,-0.11151988637197618
5.5360000000000005,-0.16460451112098656
5.538,-0.07554423342597542
5.54,-0.08310411888914873
5.542,-0.0029165711634287494
5.5440000000000005,-0.08774888873171388
5.546,-0.13491327451884597
5.548,-0.06555765691253965
5.55,-0.10872736051799994
5.5520000000000005,-0.1019392324909157
5.554,-0.13378322372026097
5.556,-0.11153539036965554
5.558,-0.11473191221815017
5.5600000000000005,-0.14659096680586162
5.562,-0.09687717924101047
5.564,-0.12958941292500292
5.566,-0.02340757113680686
5.5680000000000005,-0.14674488143604228
5.57,-0.021145701651105506
5.572,-0.11417128514109995
5.574,-0.17333130864381238
5.5760000000000005,-0.14872288330695993
5.578,-0.1905559114366725
5.58,-0.14625321883043618
5.582,-0.10101677675456626
5.5840000000000005,-0.03600981792960284
5.586,-0.06124039583725508
5.588,-0.06351880207834065
5.59,-0.09954135915065797
5.5920000000000005,-0.14147956031587974
5.594,-0.15460463171783514
5.596,-0.17376268656780233
5.598,-0.20723843958033622
5.6000000000000005,-0.09455402077276792
5.602,-0.03459120818368601
5.604,-0.12660585056009294
5.606,0.043950965328854244
5.6080000000000005,-0.12794414180292274
5.61,-0.10724933962317856
5.612,-0.14340144046806114
5.614,-0.23201389326008925
5.6160000000000005,-0.1389947141773233
5.618,-0.12671277545519283
5.62,-0.08637012444122623
5.622,-0.049194122346556984
5.6240000000000006,-0.03698237212985807
5.626,-0.08103706254006166
5.628,-0.1340649203308766
5.63,-0.14148063148628864
5.632,-0.1308100014508797
5.634,-0.150517275044585
5.636,-0.14379055988275835
5.638,-0.11205419849337168
5.64,-0.1207702167234502
5.642,-0.04759455516008247
5.644,-0.07947271213821817
5.646,-0.10571106175171069
5.648,-0.13961720170028477
5.65,-0.08087192063555527
5.652,-0.11296339480849049
5.654,-0.08953814271044536
5.656,-0.1834469134443501
5.658,-0.10951055448255129
5.66,-0.14528842337965142
5.662,-0.07998654525979862
5.664,-0.08881599174136767
5.666,-0.06884238395679956
5.668,-0.07534622220921014
5.67,-0.07955639335155285
5.672,-0.09674585961329699
5.674,-0.15285791112306607
5.676,-0.12782296811760663
5.678,-0.22343547788334547
5.68,-0.10718279766387429
5.682,-0.10071073435252208
5.684,-0.029665391476287183
5.686,-0.04163979428544019
5.688,-0.05463043115491038
5.69,-0.05998229281100297
5.692,-0.15565507515047627
5.694,-0.1629228185359286
5.696,-0.20147714649350748
5.698,-0.13123708251222177
5.7,-0.08928225627740356
5.702,-0.0670308224515186
5.704,-0.009505501234949637
5.706,-0.04021861663220885
5.708,-0.08004286087295834
5.71,-0.10417981280909892
5.712,-0.1532828420817535
5.714,-0.19462954203199734
5.716,-0.13833308147128795
5.718,-0.09479768367446749
5.72,-0.12614596485355134
5.722,-0.01954521540707512
5.724,-0.029218730675334113
5.726,-0.08790400808319553
5.728,-0.07557673074540283
5.73,-0.11549611230420989
5.732,-0.17551184948089232
5.734,-0.11853935725642425
5.736,-0.10184384426074153
5.738,-0.1256177461953194
5.74,-0.09600265439948481
5.742,-0.1782806019127084
5.744,-0.07578199391235185
5.746,-0.16990063264026764
5.748,-0.19852209682658284
5.75,-0.15875465869838945
5.752,-0.23909038397116664
5.7540000000000004,-0.18313506310318625
5.756,-0.23510771152987048
5.758,-0.14634796915230625
5.76,-0.15374252117028542
5.7620000000000005,-0.09707438740379246
5.764,0.05550161175670042
5.766,0.20742876466949803
5.768,0.393892811162561
5.7700000000000005,0.5284171333879915
5.772,0.6195951824955829
5.774,0.8192148114516901
5.776,0.8419194855796173
5.7780000000000005,0.8727662782528817
5.78,0.7762026622973639
5.782,0.6462871849133036
5.784,0.5115481190071165
5.7860000000000005,0.393301203702717
5.788,0.25017431273005425
5.79,0.1005114447758757
5.792,-0.18311883727515016
5.7940000000000005,-0.2463713411580315
5.796,-0.31207374401277976
5.798,-0.26527347834671583
5.8,-0.2600175896782732
5.8020000000000005,-0.267845876560021
5.804,-0.18088522752280684
5.806,-0.16686829468524073
5.808,-0.2279607721589074
5.8100000000000005,-0.24903106368518102
5.812,-0.2627867315418806
5.814,-0.22425512451002075
5.816,-0.14247407424400038
5.8180000000000005,-0.11211508120195682
5.82,-0.03767581413614043
5.822,-0.011256024003068273
5.824,0.0024866448868937664
5.8260000000000005,-0.04102864824929239
5.828,-0.11686836150187158
5.83,-0.09667811151343877
5.832,-0.1023481550427818
5.8340000000000005,-0.12936378389911332
5.836,-0.12638812984016365
5.838,-0.0473826916359432
5.84,-0.09862650010814217
5.8420000000000005,-0.012162323973861654
5.844,-0.001247377592742932
5.846,-0.08540772869516944
5.848,-0.06301465063835482
5.8500000000000005,-0.07924863029167153
5.852,-0.10904551286635672
5.854,-0.038336651324049176
5.856,-0.1271073105986863
5.8580000000000005,-0.08597593894626032
5.86,-0.07970051444881389
5.862,-0.10121942683244319
5.864,-0.0033378161291317404
5.8660000000000005,-0.0747376654287274
5.868,0.001538221095358186
5.87,0.005766277464704546
5.872,-0.12018687354836319
5.8740000000000006,-0.09910887162445092
5.876,-0.08789755675206212
5.878,-0.10662398505910825
5.88,-0.12259999580789127
5.882000000000001,-0.014445321027723439
5.884,-0.02467735253503915
5.886,0.013486197086816837
5.888,-0.0006492207956016165
5.89,-0.04883067668919864
5.892,-0.09823047047709209
5.894,-0.18492619229518284
5.896,-0.0687058047293797
5.898,-0.14270210517000348
5.9,-0.004993153793516017
5.902,-0.04615812156174016
5.904,0.042538720751193665
5.906,0.014099292271100369
5.908,-0.052425031531503505
5.91,-0.06950004813868974
5.912,-0.12218883810745106
5.914,-0.09627071777423894
5.916,-0.11250284100843796
5.918,-0.07460995541848436
5.92,0.007722852455947206
5.922,0.005104916064532498
5.924,-0.04069502259131516
5.926,0.023816235978301417
5.928,-0.05406906675147345
5.93,-0.06588477929332243
5.932,-0.1207489616103893
5.934,-0.10000025027121878
5.936,-0.032654051870237275
5.938,-0.07480424984985122
5.94,-0.005463874305705555
5.942,-0.07784407393681479
5.944,0.0014644724348794047
5.946,0.00525201617527301
5.948,-0.04552661203553911
5.95,-0.05085834002851681
5.952,-0.0413448494645183
5.954,-0.0510027197166972
5.956,-0.10724243980327502
5.958,-0.027534235544955835
5.96,-0.08859437325536335
5.962,-0.056644314225519285
5.964,-0.013379831157259943
5.966,0.0150641416462285
5.968,0.03367466963874019
5.97,-0.05586241632407743
5.972,-0.03387821241586193
5.974,-0.02985366774380377
5.976,-0.1368393359296581
5.978,-0.07280827233322486
5.98,-0.10970590931213794
5.982,0.011548502286669739
5.984,0.02610999574636168
5.986,0.07245112582262556
5.988,0.014896641583630525
5.99,-0.023949352967867002
5.992,-0.08019010662591788
5.994,-0.08532348688479875
5.996,-0.1010981000104567
5.998,-0.1115107028791346
6.0,0.003747110691697683
6.002,0.035982607450262924
6.0040000000000004,0.017283022968610846
6.006,0.05121680903457339
6.008,0.024176159231748106
6.01,-0.003681853743375825
6.0120000000000005,-0.1220330712361977
6.014,-0.10833825801824315
6.016,-0.027948775511337898
6.018,-0.1107673502142802
6.0200000000000005,0.039221338277710335
6.022,0.06242205736588149
6.024,0.022120007842282984
6.026,0.02717203372865617
6.0280000000000005,0.005906501850473452
6.03,-0.022168932066458993
6.032,-0.09074123618057692
6.034,-0.046668447571234964
6.0360000000000005,-0.0434152910617419
6.038,0.003815979325468861
6.04,0.045706501089683264
6.042,-0.004175996992616466
6.0440000000000005,0.05663596065366376
6.046,0.02638400008133457
6.048,-0.006337537789876561
6.05,0.0250886731290153
6.0520000000000005,0.03236479977297378
6.054,0.005296680426980996
6.056,-0.02342684769918671
6.058,0.04793803686117011
6.0600000000000005,0.04758004621048579
6.062,0.029904582523993462
6.064,0.07088427044415313
6.066,0.0799894978691984
6.0680000000000005,0.1600695913742412
6.07,0.08441153897643111
6.072,0.05933854724920806
6.074,0.07869461630994483
6.0760000000000005,0.06274014548504304
6.078,0.06964773434668095
6.08,0.03867320430261684
6.082,0.14812620868650855
6.0840000000000005,0.20964431380364218
6.086,0.22597400955090527
6.088,0.24698413285118875
6.09,0.19483106737473804
6.0920000000000005,0.14440769337691017
6.094,0.06534322285249236
6.096,0.16539588687631543
6.098,0.17068952932378578
6.1000000000000005,0.23398368991353183
6.102,0.27808617000042885
6.104,0.3237969992944536
6.106,0.3009015295169452
6.1080000000000005,0.3292481027576305
6.11,0.2613108940934398
6.112,0.27713533225440334
6.114,0.185854921353172
6.1160000000000005,0.26737209453009286
6.118,0.2492178660190243
6.12,0.36915982811566805
6.122,0.43812785689758116
6.1240000000000006,0.32400759480183605
6.126,0.39411154860668557
6.128,0.3637070267842694
6.13,0.3400041995454976
6.132000000000001,0.289642190649479
6.134,0.3508386349883168
6.136,0.298099068113717
6.138,0.38237829198736495
6.140000000000001,0.37683185374348316
6.142,0.38842627802549157
6.144,0.3806749874281761
6.146,0.34750533213306517
6.148,0.39347344340822427
6.15,0.3142084515658545
6.152,0.34741404128140474
6.154,0.3556553448817047
6.156,0.21098995632273188
6.158,0.3642993385833815
6.16,0.24735536621377777
6.162,0.3126573293834053
6.164,0.23952109567440216
6.166,0.2459624309319109
6.168,0.28544621831153977
6.17,0.18226410227604373
6.172,0.11974808413914603
6.174,0.17153904299274958
6.176,0.05332951048386484
6.178,0.09228548353244945
6.18,0.09614859043713787
6.182,0.15899347638986738
6.184,0.24356497332439747
6.186,0.24746915660212793
6.188,0.4602226164494075
6.19,0.552187233684431
6.192,0.5751248675768418
6.194,0.7931367088471207
6.196,0.9389627888829729
6.198,1.0451567109743904
6.2,1.1309846405909565
6.202,1.1182502160486534
6.204,0.982849802994365
6.206,0.8243159647079167
6.208,0.6073266978500603
6.21,0.3737290003334251
6.212,0.18552137172140218
6.214,0.019042338649069533
6.216,-0.06695430813693602
6.218,-0.04379349452437365
6.22,-0.051521784198911305
6.222,-0.01884494154430013
6.224,-0.0874624761470376
6.226,-0.11427332609278774
6.228,-0.11339753679733534
6.23,-0.1572065781716472
6.232,-0.13673975179179218
6.234,-0.1371309504022899
6.236,-0.06832467405787136
6.238,0.0016176698388955307
6.24,0.08492683670047844
6.242,0.04885638016813228
6.244,0.10086830333996646
6.246,0.031941847104969334
6.248,0.07203987574514925
6.25,0.02064333511632407
6.252,0.04964414986871894
6.2540000000000004,0.012320240051383458
6.256,0.0005363283600637592
6.258,0.03959415079222059
6.26,0.06719889202147296
6.2620000000000005,-0.03265051696539473
6.264,0.07038937047274242
6.266,0.10262160847888953
6.268,0.06081941004411324
6.2700000000000005,0.047945590389466594
6.272,0.05329595208480927
6.274,0.01574855429541588
6.276,-0.018245343417259183
6.2780000000000005,0.004556971712135864
6.28,-0.0077105304447771285
6.282,0.047401314364587464
6.284,0.11242543371163495
6.2860000000000005,0.12692110777452437
6.288,0.07409042072205564
6.29,0.042180383320986
6.292,0.05731895424739357
6.2940000000000005,-0.07273458436913963
6.296,-0.02445644274908463
6.298,0.022753131403436676
6.3,0.03663268461870925
6.3020000000000005,0.09431484821371668
6.304,0.1327474799054162
6.306,0.11534947308310405
6.308,0.06228703169473604
6.3100000000000005,0.04040595898200174
6.312,0.006533647318119971
6.314,-0.06440600956502869
6.316,0.01252300703131216
6.3180000000000005,0.01990594326012928
6.32,0.09037495410654078
6.322,0.1415108803758241
6.324,0.036566498605165754
6.3260000000000005,0.1294025915815645
6.328,0.03620889116811254
6.33,0.010869084398748405
6.332,-0.0616222759581947
6.3340000000000005,0.05074168288906936
6.336,0.05776473362276986
6.338,0.04520511391527673
6.34,0.12328869104459599
6.3420000000000005,0.014243011714923579
6.344,0.06853981212977327
6.346,0.06987145259121323
6.348,0.0956712242562962
6.3500000000000005,0.06507426381915417
6.352,0.012524048612559197
6.354,0.023780738477254856
6.356,-0.003417749309737355
6.3580000000000005,0.047132629500214754
6.36,0.06419890807095487
6.362,0.05320901123086758
6.364,0.09461972186030977
6.3660000000000005,0.0926666795436224
6.368,0.08772826140998653
6.37,0.0898726294269364
6.372,0.01977770372170637
6.3740000000000006,0.024492607522954065
6.376,-0.02001265476196658
6.378,0.004546106264436502
6.38,0.05268434530066397
6.382000000000001,0.05041649533023404
6.384,0.09412952216566814
6.386,0.11443799296815459
6.388,0.13589007036235576
6.390000000000001,0.09670075402960288
6.392,0.027009337784866062
6.394,-0.013351544710677746
6.396,-0.03659335350218924
6.398000000000001,0.03284727943932257
6.4,0.026902143567753826
6.402,0.12533922526791338
6.404,0.13568323009364655
6.406,0.1279476029325411
6.408,0.052884629381288815
6.41,0.08396903620150005
6.412,-0.062478914044263416
6.414,0.024143880131020423
6.416,-0.022146835555404594
6.418,0.07432809808108337
6.42,0.05792209326023828
6.422,0.11387559708783793
6.424,0.12137484532523868
6.426,0.12041701652915922
6.428,0.05927605019804104
6.43,0.04516203917320746
6.432,-0.032529527288619964
6.434,0.06387819773693354
6.436,0.06661193200813792
6.438,0.05840872423518511
6.44,0.07230249671287295
6.442,0.04068631905013184
6.444,0.15185929447338006
6.446,0.03729087872793116
6.448,0.10482159747130317
6.45,0.03954288852625067
6.452,0.04633972430737013
6.454,0.07978500672569913
6.456,0.0028846852171351828
6.458,0.10359245120447252
6.46,0.03619783140928176
6.462,0.0570640094884919
6.464,0.11007902621387582
6.466,0.15928346348801886
6.468,0.07740139238845084
6.47,0.16428167636645646
6.472,0.0835091698338028
6.474,0.03872798529246507
6.476,0.04995016212650737
6.478,0.05528093374672832
6.48,0.10222564573224323
6.482,0.06299512881412804
6.484,0.18057885371462465
6.486,0.2193887535127798
6.488,0.18067807984350662
6.49,0.12254089034784708
6.492,0.07834899237506532
6.494,0.11992082772733097
6.496,0.13897348357757572
6.498,0.06586654459263623
6.5,0.20300482495354183
6.502,0.2179902343041219
6.5040000000000004,0.23939667323358482
6.506,0.31704933196658863
6.508,0.2503758394508433
6.51,0.1977912222543344
6.5120000000000005,0.16788418956166465
6.514,0.18855497915362954
6.516,0.1710141436570729
6.518,0.23595015286846915
6.5200000000000005,0.3347643627903177
6.522,0.30648105375908297
6.524,0.35550026666829654
6.526,0.34846187715759835
6.5280000000000005,0.29047310029266
6.53,0.35822898781562806
6.532,0.249208657599149
6.534,0.25100248579401785
6.5360000000000005,0.37445405362396456
6.538,0.35983505479795336
6.54,0.3758305497336589
6.542,0.4253695818367214
6.5440000000000005,0.3784855501099918
6.546,0.4406546041006216
6.548,0.3661142066175652
6.55,0.41696912810871367
6.5520000000000005,0.4042724156671325
6.554,0.40568024827058174
6.556,0.38402755738177596
6.558,0.35491035781899916
6.5600000000000005,0.3729495703770792
6.562,0.41472390054697733
6.564,0.4056182377976554
6.566,0.4775106845340697
6.5680000000000005,0.420239045883865
6.57,0.42004641256229697
6.572,0.40442496147417245
6.574,0.3573453045407876
6.5760000000000005,0.30951410043873834
6.578,0.28795518418916033
6.58,0.347258322926479
6.582,0.3799507543449469
6.5840000000000005,0.40222824404076246
6.586,0.41422568090344614
6.588,0.4136300764605029
6.59,0.33653805765283157
6.5920000000000005,0.23950500075987385
6.594,0.24968152304066837
6.596,0.1994945550703113
6.598,0.19443976918484257
6.6000000000000005,0.24309489756342953
6.602,0.31749067369350037
6.604,0.36205085811838816
6.606,0.2824107822193236
6.6080000000000005,0.2650089060667535
6.61,0.20297769316925773
6.612,0.10554941256523152
6.614,0.13955741848957978
6.6160000000000005,0.11779718999992358
6.618,0.18203870413039658
6.62,0.14485799028019894
6.622,0.20069806670528711
6.6240000000000006,0.26164630725209753
6.626,0.15887534159591785
6.628,0.11083985104589021
6.63,0.14647004568972352
6.632000000000001,0.04231417343683399
6.634,0.0721433750013458
6.636,0.042796456847759484
6.638,0.15869285464324867
6.640000000000001,0.11212613868038296
6.642,0.07390472329640485
6.644,0.12813946011394906
6.646,0.11960657623823073
6.648000000000001,0.07136929881027139
6.65,0.08008936261947062
6.652,0.058684164475936454
6.654,0.02422415750803277
6.656000000000001,0.06295310402231898
6.658,0.024776528729347186
6.66,0.03928014181816367
6.662,0.044687654104824
6.664,0.08519743162771606
6.666,0.08168158436233666
6.668,0.10881568099198302
6.67,0.07250276125434728
6.672,0.0859984717878205
6.674,-0.012793255786394828
6.676,-0.028101814359941826
6.678,-0.01326419531875874
6.68,0.05696555376902107
6.682,0.037911364440888266
6.684,0.11641937062824628
6.686,0.08146386203492928
6.688,0.1303572079843916
6.69,0.026230491036785944
6.692,0.055563625575854855
6.694,-0.05830314779187974
6.696,-0.056609765027413855
6.698,-0.01694702176657297
6.7,0.08182195305579501
6.702,0.05424218154177634
6.704,0.10457960734706911
6.706,0.12102709881398858
6.708,0.0768918080111997
6.71,0.00042827864856130257
6.712,-0.021866320760258566
6.714,-0.018648174094804813
6.716,-0.018455503246448082
6.718,-0.021226913294097118
6.72,0.11163798957199139
6.722,0.03679542351470802
6.724,0.07434033114933786
6.726,0.013974899697512736
6.728,-0.018592569603382073
6.73,-0.07132802744799847
6.732,-0.05874772379193936
6.734,-0.19520127907213808
6.736,-0.06800044329024688
6.738,-0.04702905111021097
6.74,-0.0312878353496136
6.742,-0.041705886804132564
6.744,0.004122131585914703
6.746,0.029972655334827195
6.748,0.05528528190397926
6.75,0.23371953267664444
6.752,0.3697636576563816
6.7540000000000004,0.5214971692908911
6.756,0.6741929677614037
6.758,0.8665626119749906
6.76,0.9651067097065865
6.7620000000000005,1.0065130509692168
6.764,1.003103630634928
6.766,0.8853773795843393
6.768,0.7059424570072275
6.7700000000000005,0.48376340734277634
6.772,0.3624356106494632
6.774,0.11195518065690033
6.776,-0.040338207749001764
6.7780000000000005,-0.11318387829608655
6.78,-0.12021537596522332
6.782,-0.08077058703111076
6.784,-0.15092235302643003
6.7860000000000005,-0.0856672610810496
6.788,-0.1358620185342629
6.79,-0.13708981781963053
6.792,-0.21021808107909573
6.7940000000000005,-0.2226485265517855
6.796,-0.1547662401579377
6.798,-0.13929345918941102
6.8,-0.010475165375183598
6.8020000000000005,0.030649255248928475
6.804,0.10415561105218499
6.806,0.08023748141739247
6.808,0.06972626449406469
6.8100000000000005,-0.010454475276661521
6.812,-0.07129688807800996
6.814,-0.0713103629677957
6.816,0.00613906110043267
6.8180000000000005,-0.0415509131267455
6.82,0.0027722994017042035
6.822,0.09246556403533715
6.824,0.04700040012549114
6.8260000000000005,0.0850351588182815
6.828,-0.0015747966012133168
6.83,-0.054375809906625897
6.832,-0.0008605524369028339
6.8340000000000005,-0.0361730419912944
6.836,-0.06260200825224574
6.838,0.0446556761200147
6.84,0.029186782624751387
6.8420000000000005,-0.004073190634021541
6.844,0.047423983884596566
6.846,-0.010632907394508818
6.848,-0.0028624652878111133
6.8500000000000005,0.04529087293936113
6.852,-0.026561824836654407
6.854,0.008960296410620908
6.856,-0.07648089280146016
6.8580000000000005,0.014822643606311171
6.86,-0.05911330998323992
6.862,0.032646623668968415
6.864,-0.03673504447778931
6.8660000000000005,0.08885563615659471
6.868,0.020449928864579206
6.87,0.026834336946397593
6.872,-0.0007073040397690394
6.8740000000000006,-0.07737604388997449
6.876,-0.024954925582126482
6.878,-0.08942378145101736
6.88,-0.06082382836683319
6.882000000000001,0.021206377531973505
6.884,0.029321419741188653
6.886,0.10887950152175256
6.888,0.007664145837663852
6.890000000000001,0.055310758270068205
6.892,-0.06504791813725602
6.894,-0.13330711424123134
6.896,-0.09160872718991726
6.898000000000001,-0.014249430004269245
6.9,-0.03256491237349754
6.902,0.01604030652452019
6.904,0.06863145176871237
6.906000000000001,0.02467686420689144
6.908,0.004769068001506848
6.91,0.015170802718217441
6.912,-0.0856610589208913
6.914,-0.0855993179557741
6.916,-0.09989881180723932
6.918,0.019287015854760073
6.92,-0.04344240996465308
6.922,0.03209694049774625
6.924,0.04216841493286887
6.926,0.008356475888791966
6.928,-0.02486306883307995
6.93,-0.005497292658291346
6.932,-0.10952953802913956
6.934,-0.06551382838310711
6.936,-0.03269055262635575
6.938,-0.06279589201300745
6.94,0.01863440337825013
6.942,0.018681612322606355
6.944,-0.0011199134661745817
6.946,-0.07389955941389746
6.948,-0.0036361425387981816
6.95,-0.022531960445033437
6.952,-0.0007593502548812053
6.954,-0.10374545094130525
6.956,-0.03918867645609719
6.958,-0.039365769007532025
6.96,-0.08622226387316759
6.962,-0.030626258449517003
6.964,-0.015183353299175514
6.966,0.017199028760169113
6.968,0.004007755628664125
6.97,-0.03096757262000785
6.972,0.014067077936580054
6.974,-0.10755162304399213
6.976,-0.07850431049778278
6.978,-0.11393680044587395
6.98,-0.09244238901629545
6.982,-0.012362192716628542
6.984,-0.022554539833486285
6.986,0.08849947418341454
6.988,-0.010728779474658987
6.99,-0.05607871966893643
6.992,-0.01013086571439048
6.994,-0.15011300196747082
6.996,-0.09467596356825798
6.998,-0.06623396250222954
7.0,-0.10338539035707447
7.002,0.009298273305383308
7.0040000000000004,0.004938894638783432
7.006,0.0659238663498304
7.008,-0.003623060533950624
7.01,-0.06918112420337154
7.0120000000000005,-0.10781408660918798
7.014,-0.1361325347375143
7.016,-0.10580065444551913
7.018,-0.022029088661645574
7.0200000000000005,-0.025803013497824517
7.022,0.03845247365139502
7.024,0.03475415528695631
7.026,-0.06079374653314879
7.0280000000000005,0.005117186494777763
7.03,-0.08662975720610047
7.032,-0.0499837024172974
7.034,-0.05747222195307014
7.0360000000000005,-0.03686292345841449
7.038,-0.06489494198963947
7.04,0.022784081933955008
7.042,0.04215895670532775
7.0440000000000005,-0.011906720762827363
7.046,-0.029506858834098145
7.048,0.07805963872209193
7.05,-0.013546140546611175
7.0520000000000005,0.0035275509748143464
7.054,0.031579294142051136
7.056,-0.012249725662481304
7.058,0.007153115332093679
7.0600000000000005,0.008154197024327677
7.062,0.09240106309393989
7.064,0.0025807301955196454
7.066,0.1439603815747835
7.0680000000000005,0.1315356356875023
7.07,0.08894978765154123
7.072,0.059785803223395786
7.074,0.13448553847208033
7.0760000000000005,0.031258040222682124
7.078,0.030837309409803774
7.08,0.12657591501603138
7.082,0.1469639153514686
7.0840000000000005,0.2265664963740982
7.086,0.2067861344817907
7.088,0.22970722993782972
7.09,0.20786169079360708
7.0920000000000005,0.17585902664544
7.094,0.11214983438372278
7.096,0.1228559732756267
7.098,0.15238265379500557
7.1000000000000005,0.20411635670388134
7.102,0.29001391644754615
7.104,0.30292104800094366
7.106,0.31607553218411816
7.1080000000000005,0.31969947712438024
7.11,0.25162453852141553
7.112,0.19175995870805312
7.114,0.17017725898236888
7.1160000000000005,0.23151534241362026
7.118,0.23847969882038444
7.12,0.2824086731614735
7.122,0.32753334632937764
7.1240000000000006,0.34020682392688545
7.126,0.2551308023739726
7.128,0.2939507788208634
7.13,0.18880175470448413
7.132000000000001,0.22700500706348015
7.134,0.20546610683788494
7.136,0.22100248445376766
7.138,0.20370046029603994
7.140000000000001,0.26928722662914945
7.142,0.24653057376401324
7.144,0.1986031391075211
7.146,0.21449887182902408
7.148000000000001,0.21103227627710233
7.15,0.14953872196791243
7.152,0.19057175041195928
7.154,0.1255497040767196
7.156000000000001,0.1821339012228047
7.158,0.0669951764029581
7.16,0.11195501274043888
7.162,0.09156215666396131
7.164000000000001,0.12838816179305612
7.166,0.13618017776745542
7.168,0.11927855208600098
7.17,0.06285513444121704
7.172,0.06541998783643155
7.174,-0.015225760925106292
7.176,-0.0021577031696764955
7.178,0.036922438252261075
7.18,-0.06031129904346336
7.182,0.048120671339469075
7.184,0.037398373549899375
7.186,0.07545241042947122
7.188,0.05362530927203436
7.19,0.017619508999793428
7.192,-0.11127639307793245
7.194,-0.08870998705539883
7.196,-0.1523295509561787
7.198,-0.08774505192184275
7.2,-0.07278847960020368
7.202,0.005286824681220697
7.204,0.05182048486504308
7.206,-0.0399451855226928
7.208,-0.05319834753400808
7.21,-0.10251415814787765
7.212,-0.12566305034140132
7.214,-0.14477839428671294
7.216,-0.1674731438058874
7.218,-0.09165732638872329
7.22,-0.10705382212135245
7.222,0.01265380341494119
7.224,-0.09580888472088844
7.226,-0.016743782103899874
7.228,-0.11940997372103523
7.23,-0.15893486821063232
7.232,-0.1442900549866475
7.234,-0.11164423682602329
7.236,-0.1500188948869745
7.238,-0.09282489630756932
7.24,-0.10543157949680325
7.242,-0.11811971891585621
7.244,-0.07739848325047935
7.246,-0.10262084730496525
7.248,-0.10798369192229212
7.25,-0.09716950931161555
7.252,-0.18032611096173967
7.2540000000000004,-0.09105299782509862
7.256,-0.14181449658018075
7.258,-0.18747254605031
7.26,-0.0940926520378698
7.2620000000000005,-0.16013118209913302
7.264,-0.03773578551885054
7.266,-0.118904999870013
7.268,-0.10775698240671627
7.2700000000000005,-0.07143475309512293
7.272,-0.14077503543959818
7.274,-0.11595139352185001
7.276,-0.21802918815491948
7.2780000000000005,-0.15315691623789526
7.28,-0.19892493990680546
7.282,-0.0736451576606318
7.284,-0.12263641000246399
7.2860000000000005,-0.016129085594963635
7.288,-0.08697139467073163
7.29,-0.09472409530879158
7.292,-0.23427401523697067
7.2940000000000005,-0.1500185528334685
7.296,-0.2180348821065879
7.298,-0.1980953356457422
7.3,-0.078193958241876
7.3020000000000005,-0.06708517564268993
7.304,-0.07594754154759889
7.306,-0.10514670936907786
7.308,-0.07361367423313844
7.3100000000000005,-0.10654953414896413
7.312,-0.217495885619232
7.314,-0.23088854053685326
7.316,-0.17827037203763013
7.3180000000000005,-0.14350099396831073
7.32,-0.08363162603417966
7.322,-0.10512285394587642
7.324,-0.07374806768915491
7.3260000000000005,-0.11690287328217089
7.328,-0.12952344713413988
7.33,-0.14861849011386713
7.332,-0.17147011366814507
7.3340000000000005,-0.16848416235677874
7.336,-0.14494818880458482
7.338,-0.16690825837733542
7.34,-0.13655944664979786
7.3420000000000005,-0.05066876404114246
7.344,-0.13631666834993325
7.346,-0.11819376492482041
7.348,-0.1684681410347295
7.3500000000000005,-0.1299224414945932
7.352,-0.1240902767189988
7.354,-0.17976140456958728
7.356,-0.20447724812103868
7.3580000000000005,-0.11732721275977621
7.36,-0.14311738901135831
7.362,-0.18875426889556807
7.364,-0.09592742928646962
7.3660000000000005,-0.057552114408937136
7.368,-0.13744652661738074
7.37,-0.0726769587176431
7.372,-0.16299705263377234
7.3740000000000006,-0.1782178371069256
7.376,-0.19440634443101004
7.378,-0.20123180222641665
7.38,-0.18674831653096796
7.382000000000001,-0.12179220143399515
7.384,-0.12811144173834857
7.386,-0.04599541495835466
7.388,-0.09620255711070091
7.390000000000001,-0.08287163170339686
7.392,-0.21653692298390165
7.394,-0.1941676101644153
7.396,-0.19156014183176234
7.398000000000001,-0.20546449196368152
7.4,-0.1746441396400886
7.402,-0.08731157312489476
7.404,-0.08787734399776258
7.406000000000001,-0.0972520532901712
7.408,-0.08197545484677857
7.41,-0.14645506554700927
7.412,-0.19187015185579465
7.414000000000001,-0.23478523467021986
7.416,-0.21554364484291985
7.418,-0.13396573923185304
7.42,-0.12117564803769015
7.422000000000001,-0.09581968049837168
7.424,-0.07969724069172124
7.426,-0.12721142657588344
7.428,-0.13388532734195163
7.43,-0.17782070903342723
7.432,-0.18829676261965975
7.434,-0.18762598223153915
7.436,-0.2135729193847772
7.438,-0.1070972794807228
7.44,-0.12966142895410257
7.442,-0.12481588786085349
7.444,-0.1400727552131158
7.446,-0.08838852977998479
7.448,-0.16026003341694772
7.45,-0.17057630674302807
7.452,-0.16057533490177867
7.454,-0.16355785216544758
7.456,-0.19173078907770888
7.458,-0.17018325365936884
7.46,-0.14144908863654473
7.462,-0.16809940952671576
7.464,-0.1491596277434714
7.466,-0.08388468777425587
7.468,-0.08495946946343033
7.47,-0.1506609096365068
7.472,-0.16588992759872834
7.474,-0.1735256037236774
7.476,-0.1799508815062346
7.478,-0.21348764907686907
7.48,-0.18544077362610695
7.482,-0.15319156803887804
7.484,-0.05182887585373351
7.486,-0.11022997838119843
7.488,-0.0826401990104426
7.49,-0.1011150823465096
7.492,-0.18240911795270437
7.494,-0.24966324508920806
7.496,-0.20580781307636486
7.498,-0.2092329012203911
7.5,-0.13805064381032744
7.502,-0.14025460894519648
7.5040000000000004,-0.051100981291910666
7.506,-0.06652246887733629
7.508,-0.12267859590942412
7.51,-0.18666306249691536
7.5120000000000005,-0.22734063711035718
7.514,-0.16303783616749465
7.516,-0.24193718014713617
7.518,-0.15163758453451343
7.5200000000000005,-0.1365027879565764
7.522,-0.09893450025027595
7.524,-0.07691399149805195
7.526,-0.10181728845807161
7.5280000000000005,-0.16636694747922162
7.53,-0.14707263610987026
7.532,-0.17222667600432118
7.534,-0.19239991149034108
7.5360000000000005,-0.19952129117059164
7.538,-0.18592533086955446
7.54,-0.10042458654252248
7.542,-0.16126375276146257
7.5440000000000005,-0.08806312534539926
7.546,-0.16755066139167696
7.548,-0.09619274778082727
7.55,-0.18483119317323088
7.5520000000000005,-0.1112014112827065
7.554,-0.21688895926459673
7.556,-0.1569797151085801
7.558,-0.16030223310748185
7.5600000000000005,-0.13559547074069947
7.562,-0.17073747460409494
7.564,-0.14279210882733534
7.566,-0.07906255017269775
7.5680000000000005,-0.11753041242383355
7.57,-0.11259805064232416
7.572,-0.1647827902318077
7.574,-0.18363843625876064
7.5760000000000005,-0.18986458691391736
7.578,-0.23326957468318812
7.58,-0.16561068470136972
7.582,-0.08455922480095127
7.5840000000000005,-0.13439725149626242
7.586,-0.08414880502202536
7.588,-0.0830184008924139
7.59,-0.14043390134853137
7.5920000000000005,-0.11404265377193248
7.594,-0.28237361581109366
7.596,-0.21287929178725298
7.598,-0.19849346059189577
7.6000000000000005,-0.14488408320128254
7.602,-0.05036561414172795
7.604,-0.13230437586666383
7.606,-0.012345575116046698
7.6080000000000005,-0.17702482160814806
7.61,-0.1060937912261723
7.612,-0.22851596512784508
7.614,-0.2144913421385558
7.6160000000000005,-0.2167726525294822
7.618,-0.17064687792567135
7.62,-0.055105228207888046
7.622,-0.11268976190181787
7.6240000000000006,-0.0935307915895926
7.626,-0.12218741731220346
7.628,-0.07531594691804709
7.63,-0.19407984584387764
7.632000000000001,-0.18294111004861657
7.634,-0.20658976524281003
7.636,-0.11788464097909328
7.638,-0.15111460153185324
7.640000000000001,-0.15247782956296443
7.642,-0.10456985926194685
7.644,-0.08822664126405619
7.646,-0.14334988307415267
7.648000000000001,-0.11647017417052938
7.65,-0.1893140101978538
7.652,-0.12991716910112558
7.654,-0.12320914201881468
7.656000000000001,-0.18472072072533036
7.658,-0.15384837771171742
7.66,-0.12633739155273885
7.662,-0.17210764809916934
7.664000000000001,-0.10373025239121245
7.666,-0.12439607385428231
7.668,-0.07105018078409313
7.67,-0.09848832887121614
7.672000000000001,-0.12344753682791923
7.674,-0.18188534506814236
7.676,-0.24811321520432425
7.678,-0.1469693444890535
7.68,-0.1953449168084438
7.682,-0.11729294466067558
7.684,-0.04226490096348366
7.686,-0.06683265658221726
7.688,-0.05202489293583938
7.69,-0.1353276126275088
7.692,-0.18047825735746584
7.694,-0.18959336798866677
7.696,-0.19877285597384575
7.698,-0.19478408466044286
7.7,-0.1402948438091138
7.702,-0.07356638378195356
7.704,-0.06692502873530831
7.706,-0.04593402854335816
7.708,-0.0880240742654802
7.71,-0.16563306048663895
7.712,-0.19898415910813574
7.714,-0.18060517985152835
7.716,-0.19473873886150497
7.718,-0.13721800586775962
7.72,-0.09579844160884338
7.722,-0.09981555615073508
7.724,-0.05162796409871577
7.726,-0.06306351171401912
7.728,-0.09995869604531797
7.73,-0.1802366607366484
7.732,-0.14982595115695563
7.734,-0.1459335701756389
7.736,-0.17892426013592636
7.738,-0.13939617079164346
7.74,-0.06694830262259657
7.742,-0.10854252333506395
7.744,-0.06466756909818047
7.746,-0.11033841229230884
7.748,-0.0972024979921281
7.75,-0.17888271599084332
7.752,-0.12734167443397332
7.7540000000000004,-0.11935127023914446
7.756,-0.141047622276121
7.758,-0.17914559970995858
7.76,-0.14439267134128425
7.7620000000000005,-0.1036497117775004
7.764,-0.08749176685819887
7.766,-0.04571464098951157
7.768,-0.10829781512644873
7.7700000000000005,-0.091186194933457
7.772,-0.08247225634330314
7.774,-0.15716740388907469
7.776,-0.17946302520006557
7.7780000000000005,-0.13454476295390594
7.78,-0.18559369456554153
7.782,-0.11786581963899848
7.784,0.013036199910115669
7.7860000000000005,-0.06348514904955205
7.788,-0.06799707670015091
7.79,-0.10607289228734576
7.792,-0.10280975727086908
7.7940000000000005,-0.20697797699176826
7.796,-0.16987324839133316
7.798,-0.1755385767691838
7.8,-0.07583724658154753
7.8020000000000005,-0.11176594932304576
7.804,0.01725409435002717
7.806,-0.027502407898751628
7.808,-0.1259373458597719
7.8100000000000005,-0.12114007035083132
7.812,-0.1355567357050963
7.814,-0.19521993246325675
7.816,-0.09502471531597252
7.8180000000000005,-0.17125528270402707
7.82,-0.050297589192827154
7.822,-0.025021079229410385
7.824,-0.07183162744678998
7.8260000000000005,-0.059310108130577674
7.828,-0.10028945197684547
7.83,-0.13689335293235752
7.832,-0.125238685048079
7.8340000000000005,-0.15259561013753534
7.836,-0.14328405300101135
7.838,-0.06451728876434432
7.84,-0.10246618000645474
7.8420000000000005,-0.05896785738355326
7.844,-0.07012741751974622
7.846,-0.0733240597620981
7.848,-0.10790574202801875
7.8500000000000005,-0.09851676651118478
7.852,-0.057002673225179955
7.854,-0.11750433290821063
7.856,-0.18263721647244355
7.8580000000000005,-0.09113562086873922
7.86,-0.1126100391283467
7.862,-0.07314410179746605
7.864,-0.08547873582692866
7.8660000000000005,-0.04546004215266849
7.868,0.007286389388254946
7.87,-0.07127775087950247
7.872,-0.10774832647468818
7.8740000000000006,-0.12479755662229898
7.876,-0.15697399920919605
7.878,-0.14115514650258867
7.88,-0.13581595055321283
7.882000000000001,-0.02270144219346721
7.884,-0.07195961754452751
7.886,0.0025325394279304397
7.888,-0.03835268351020646
7.890000000000001,-0.03584644897913501
7.892,-0.10070203689376878
7.894,-0.16006753491496303
7.896,-0.19613183543701362
7.898000000000001,-0.09031601446261116
7.9,-0.1197320694838952
7.902,-0.0005250972334935426
7.904,-0.003149166591630616
7.906000000000001,0.00825054440213148
7.908,-0.07732676972831394
7.91,-0.05560877764895322
7.912,-0.15960478151117033
7.914000000000001,-0.16042134325029303
7.916,-0.12058043777684825
7.918,-0.08341221354757301
7.92,-0.03979262406816147
7.922000000000001,-0.029149509352804904
7.924,0.028126866302560907
7.926,-0.08106747046674481
7.928,-0.02953025808952102
7.930000000000001,-0.1614703348025726
7.932,-0.0933557593131833
7.934,-0.0887907275794138
7.936,-0.12850344484737003
7.938,-0.03115749175053479
7.94,-0.0859542169821762
7.942,-0.07077476691376504
7.944,-0.0957309256280935
7.946,-0.13038478696411201
7.948,-0.14514754435504465
7.95,-0.16394895928507297
7.952,-0.17305077101253832
7.954,-0.17718001014152565
7.956,-0.1854463221861622
7.958,-0.1379663782393862
7.96,-0.11320437288242163
7.962,-0.12295650231407164
7.964,-0.07793852648746917
7.966,0.20164901281443426
7.968,0.30482616125823775
7.97,0.4370546838869842
7.972,0.5697750543005532
7.974,0.7112259218048574
7.976,0.8114440233951445
7.978,0.9005107665808858
7.98,0.8865705730310824
7.982,0.8604429517252369
7.984,0.6673011463108917
7.986,0.5570046115213092
7.988,0.340417549731738
7.99,0.14427230286200693
7.992,-0.05467333536304152
7.994,-0.2063719958326029
7.996,-0.2085014146703748
7.998,-0.24772134306234656
8.0,-0.21739173495284153
8.002,-0.19151215179851272
8.004,-0.1578605141697877
8.006,-0.1826412270439992
8.008000000000001,-0.1841443387908662
8.01,-0.24387861141268663
8.012,-0.26103558414312644
8.014,-0.17537249324104054
8.016,-0.13185460161323426
8.018,-0.08555953120611728
8.02,0.008079443312862863
8.022,-0.014548132340786828
8.024000000000001,0.041470058053797686
8.026,-0.029884632820778384
8.028,-0.005499351661287365
8.03,-0.06317880939201233
8.032,-0.09349207100670441
8.034,-0.0801190822492519
8.036,-0.06382897195034652
8.038,-0.003962109090979899
8.040000000000001,-0.03895651308620564
8.042,-0.009725272918287623
8.044,0.002308679975187286
8.046,-0.031425239290328616
8.048,0.017551372077716367
8.05,-0.07322450170555005
8.052,-0.0008751267877612282
8.054,-0.06142716594681535
8.056000000000001,-0.09519418304533396
8.058,-0.012039448068936566
8.06,-0.08037831290605177
8.062,-0.01682153663357333
8.064,0.011250084393559664
8.066,-0.0034670576576129805
8.068,0.015453216006496788
8.07,0.03308283762527431
8.072000000000001,-0.08304040282004768
8.074,0.0017178794771602127
8.076,-0.11423953185876948
8.078,-0.05520363939121856
8.08,-0.07761418760081762
8.082,-0.0026626148064610136
8.084,0.02160787529110755
8.086,0.058780174786690245
8.088000000000001,0.029570745655127812
8.09,0.006586885876733291
8.092,-0.05511547298660893
8.094,-0.03537842891495398
8.096,-0.17922296281496428
8.098,0.0023885417357705496
8.1,-0.042055106446883775
8.102,0.031491066604445436
8.104000000000001,0.031352895833226244
8.106,0.06581220344840871
8.108,0.06507554147508496
8.11,-0.05895490560747918
8.112,-0.07242795408394737
8.114,-0.05530592213010739
8.116,-0.0644191029484403
8.118,-0.03034950598084407
8.120000000000001,-0.008143137502787948
8.122,0.07836683274115908
8.124,0.06448164500865311
8.126,-0.0020043156491602876
8.128,0.01864644093680119
8.13,-0.053879199594762374
8.132,-0.05709611107392563
8.134,-0.04446547724224828
8.136000000000001,-0.004484739087042042
8.138,0.0017538342402763623
8.14,0.02195663753024007
8.142,-0.027484833866569053
8.144,0.047647543201677245
8.146,-0.0003391279508275953
8.148,0.016483029522363395
8.15,0.030203539563479837
8.152000000000001,-0.05125044025931449
8.154,0.018098855815713456
8.156,-0.05383990672544679
8.158,0.027321362759182
8.16,-0.051429801969328406
8.162,0.057975659358033484
8.164,-0.05261905167436941
8.166,0.07194091261376567
8.168000000000001,0.043373621618837864
8.17,0.006752640621751415
8.172,-0.0030357954480262255
8.174,-0.020314353000915622
8.176,-0.03712847330696399
8.178,-0.05623772002025132
8.18,-0.016777749548609493
8.182,0.07400047321904735
8.184000000000001,0.013111430991117522
8.186,0.10838395191758056
8.188,0.04987767637761689
8.19,0.021654393186843864
8.192,0.005524297498650455
8.194,-0.06855860441702973
8.196,-0.09079703795426214
8.198,-0.00765236196614439
8.2,0.029909176548627917
8.202,0.05458532931228519
8.204,0.07548610084885465
8.206,0.07912217319667461
8.208,0.09219329420419427
8.21,-0.04645965485268985
8.212,-0.02986116564730322
8.214,-0.048764811641047776
8.216,-0.04087807410027114
8.218,0.022332148683230642
8.22,0.06709572124135318
8.222,0.06630597733101054
8.224,0.10391146693662819
8.226,0.0575902188235221
8.228,0.048694207753602115
8.23,-0.032049083235136513
8.232,-0.04863786563284872
8.234,0.04291253832105686
8.236,-0.0010040348952907972
8.238,0.014493355878984187
8.24,0.11521199760941332
8.242,0.04485651376239558
8.244,0.06206502910935565
8.246,0.05804968675844964
8.248,0.07036419739507421
8.25,0.05995730825658683
8.252,0.05799104420874969
8.254,0.03320433223115184
8.256,0.06589584577200765
8.258000000000001,0.05218532455405467
8.26,0.0764373245869657
8.262,0.01029747256247475
8.264,0.15873436896816057
8.266,0.11942642084214576
8.268,0.19788003950985
8.27,0.10763720647368916
8.272,0.10930472217864945
8.274000000000001,0.13981824234166534
8.276,0.02159252494896536
8.278,0.10581515916332915
8.28,0.1138257578724698
8.282,0.20669184113242053
8.284,0.1951869113332101
8.286,0.29142354206352833
8.288,0.25344410759053454
8.290000000000001,0.21426312421950183
8.292,0.1906075110861356
8.294,0.1265428643239055
8.296,0.2093119444156539
8.298,0.17403239836824663
8.3,0.2370973259481627
8.302,0.3589810305453058
8.304,0.3229404209322985
8.306000000000001,0.3929519596903189
8.308,0.3099813799509186
8.31,0.2934584905237598
8.312,0.25527435540147375
8.314,0.2897245902534149
8.316,0.2707130413567667
8.318,0.33027084153829195
8.32,0.425706373159574
8.322000000000001,0.35424387371479416
8.324,0.46765960788886685
8.326,0.3978607459640541
8.328,0.3483095346902161
8.33,0.388044202860603
8.332,0.3245588680555769
8.334,0.3757673130246259
8.336,0.4024812725128995
8.338000000000001,0.38289149595881095
8.34,0.3562661906618167
8.342,0.4416729626718412
8.344,0.45620636586338814
8.346,0.37524672032917145
8.348,0.36773712172236495
8.35,0.3788667578712176
8.352,0.37047199824198385
8.354000000000001,0.3514884211507303
8.356,0.37423137253007904
8.358,0.32845069723313136
8.36,0.3347983704197354
8.362,0.309928806345237
8.364,0.3413130847623667
8.366,0.3786661079219388
8.368,0.3609903060435928
8.370000000000001,0.33719709767931855
8.372,0.28919431645023996
8.374,0.27148401182500265
8.376,0.22146114262393118
8.378,0.1533188316869058
8.38,0.26356896355337633
8.382,0.26808299847457756
8.384,0.27820165478729253
8.386000000000001,0.2977207892233977
8.388,0.27403842465681705
8.39,0.18060091465246553
8.392,0.2160466456436267
8.394,0.09462911168383058
8.396,0.13679934236382063
8.398,0.061455679501304775
8.4,0.17257728033647549
8.402000000000001,0.23134474457049914
8.404,0.21882080275043522
8.406,0.17345235126763764
8.408,0.18475493300005602
8.41,0.11908095610248132
8.412,0.020870283039845512
8.414,0.02780658728195087
8.416,0.10415193191695593
8.418000000000001,0.07904143985627829
8.42,0.06649593457221431
8.422,0.1902308207295328
8.424,0.16447781770123032
8.426,0.10839197827390953
8.428,0.07661549044188919
8.43,0.06880170664588037
8.432,0.047488523745444725
8.434000000000001,0.006290992109133073
8.436,0.029831934343595625
8.438,0.11705314243579258
8.44,0.08052097366651731
8.442,0.07986494314509972
8.444,0.10122336455024422
8.446,0.0628365280076276
8.448,0.12156884973509177
8.45,0.07054439974758459
8.452,0.0317249492463338
8.454,0.04413631506188819
8.456,0.06451000394026882
8.458,0.003722280342398042
8.46,0.030674694931469883
8.462,0.09433498062356416
8.464,0.10380159331022415
8.466,0.05513412381391837
8.468,0.08565728001912978
8.47,0.11212831865191325
8.472,0.10771162285460206
8.474,0.006422924547070549
8.476,0.007751458068113445
8.478,-0.04973178088135835
8.48,0.058313591159759134
8.482,0.05382500788892382
8.484,0.09102719513125601
8.486,0.12964851927878684
8.488,0.1612982655702063
8.49,0.08628770065117336
8.492,0.0044178610731380324
8.494,0.020194632049379116
8.496,-0.06786927745526883
8.498,0.008277824776087045
8.5,0.06863847951894372
8.502,0.14089921878464665
8.504,0.14166616032484358
8.506,0.10016578404644375
8.508000000000001,0.09057437498206733
8.51,0.07457470328813515
8.512,-0.04815163781522116
8.514,-0.02420630270607395
8.516,0.04868627380755022
8.518,0.045980061669859115
8.52,0.08835789258451504
8.522,0.1475345433997814
8.524000000000001,0.09631108107042909
8.526,0.09851393104884466
8.528,0.08963902189052471
8.53,-0.01489321489413872
8.532,0.017425854838737504
8.534,0.018563055322316238
8.536,0.009596384540136844
8.538,0.1478265366221413
8.540000000000001,0.017374888575932584
8.542,0.1114334859748829
8.544,0.04081534395720675
8.546,0.10000166344117131
8.548,0.054989298682959584
8.55,0.03831367946667497
8.552,0.06082923606732197
8.554,0.0730753701572601
8.556000000000001,0.03481539753560426
8.558,0.005016052226665339
8.56,0.049378840756389666
8.562,0.07870675914811698
8.564,0.04448644646735368
8.566,0.11497815216200608
8.568,0.11945291526367653
8.57,0.0788747389420135
8.572000000000001,0.06504540082516515
8.574,-0.03340836031669319
8.576,0.05172704011144854
8.578,-0.013906720977038
8.58,0.019879135136418678
8.582,0.10955623015857653
8.584,0.10943933050692202
8.586,0.10985773231884524
8.588000000000001,0.15839024523152512
8.59,0.036143985888120095
8.592,0.044623783738584596
8.594,-0.039749325401469054
8.596,0.0011613007509153513
