Time,ECG
0.0,1.000000000000003
0.002,0.9959440322079811
0.004,0.9407058433292717
0.006,0.751917168530637
0.008,0.4981129822817078
0.01,0.2911770363178795
0.012,0.18027651060799382
0.014,-0.08885567503693767
0.016,-0.11667063125468315
0.018000000000000002,-0.10266912745610249
0.02,-0.12474957803422135
0.022,-0.09884029045356658
0.024,-0.13161990127339876
0.026000000000000002,-0.16382828154268336
0.028,-0.1871056793564629
0.03,-0.1679398553273759
0.032,-0.2122042102603738
0.034,-0.17324386795442842
0.036000000000000004,-0.08000638477118031
0.038,-0.052461644176320626
0.04,0.04809896360865976
0.042,0.0029909772509698687
0.044,0.090102894412894
0.046,-0.015787218783130122
0.048,0.0674364489532785
0.05,-0.008323965539508815
0.052000000000000005,0.02470153462779823
0.054,0.010439776159113656
0.056,-0.022581113145772207
0.058,0.004453336789419095
0.06,-0.01148987548265185
0.062,0.01905974547867358
0.064,0.06676455698253606
0.066,0.041059006699438266
0.068,0.08049610492904152
0.07,0.03655227953569687
0.07200000000000001,0.02823531567171049
0.074,-0.001240766824229491
0.076,-0.06572842601160112
0.078,-0.01494625759809192
0.08,0.00979670111754883
0.082,0.03652345765672216
0.084,0.058991103008410095
0.08600000000000001,0.1556848870021446
0.088,0.06849376418512164
0.09,0.02684109699851938
0.092,0.036799569862174454
0.094,-0.06186027126230523
0.096,-0.0345021180104372
0.098,-0.008617219929589751
0.1,0.023673632011127554
0.10200000000000001,0.07498121289977942
0.10400000000000001,0.11288590827986154
0.106,0.14769081184019767
0.108,0.08002668065673144
0.11,-0.03807387609923297
0.112,-0.004431805903493149
0.114,-0.03425201249254231
0.116,-0.03239365125609292
0.11800000000000001,0.03512798442210743
0.12,0.048043627129622596
0.122,0.14048747111644472
0.124,0.0684825707642428
0.126,0.10884703329309753
0.128,0.008098683408660268
0.13,0.023244545777126938
0.132,0.027534575592271952
0.134,-0.012675349411391215
0.136,0.04065903434023738
0.138,0.06290976151261235
0.14,0.03280967751336256
0.14200000000000002,0.09988876711299616
0.14400000000000002,0.07709081766399317
0.146,0.07974672401397905
0.148,0.0350922313710367
0.15,0.01730513081127965
0.152,0.035735083409523444
0.154,0.05896940566103945
0.156,0.03579674278291509
0.158,0.025124259372304114
0.16,0.021633954892764613
0.162,0.05438063235959575
0.164,0.09473726653213503
0.166,0.06796526117234417
0.168,0.10029116959559405
0.17,0.10830158795864814
0.17200000000000001,0.05510257420333743
0.17400000000000002,0.01787132402386177
0.176,-0.045422696075875034
0.178,0.05146748507008773
0.18,0.015325996121496708
0.182,0.05189196161641971
0.184,0.13915525224731498
0.186,0.12556280235380482
0.188,0.128362645160154
0.19,0.06623379651448547
0.192,0.042876379965389594
0.194,-0.0191109828429189
0.196,0.002132349829139235
0.198,-0.004291791024891169
0.2,0.12259673135084453
0.202,0.04292917422439879
0.20400000000000001,0.1544400810889519
0.20600000000000002,0.15695015812853935
0.20800000000000002,0.07327185896742985
0.21,0.06460401472148343
0.212,0.0014386751604365654
0.214,0.04086667532455031
0.216,0.01775698428082801
0.218,0.025347952543003767
0.22,0.11041643415814328
0.222,0.1384294561207421
0.224,0.12769139149421138
0.226,0.08978854786825866
0.228,0.06314964446594631
0.23,0.05031585253785531
0.232,0.07239929629404858
0.234,-0.01653120425504296
0.23600000000000002,0.06847739637960715
0.23800000000000002,0.09220092620224676
0.24,0.10929071098079449
0.242,0.08553499766331807
0.244,0.1335824259240947
0.246,0.07534487459768935
0.248,0.12545464475927293
0.25,0.09663355334238712
0.252,0.0796407336368745
0.254,0.05236630627789418
0.256,0.028989903236811956
0.258,0.07368017258178146
0.26,0.1210740290557143
0.262,0.10075204047570338
0.264,0.10329298580029496
0.266,0.10782562136630555
0.268,0.18811815452748973
0.27,0.1409131215605692
0.272,0.13061639023024468
0.274,0.06354549935841414
0.276,0.04058982409761862
0.278,0.10732127919922597
0.28,0.08236605672273321
0.28200000000000003,0.15651825345758444
0.28400000000000003,0.20116176754596998
0.28600000000000003,0.20417334748014077
0.28800000000000003,0.21687121716802216
0.29,0.2154749773643012
0.292,0.1271598674152004
0.294,0.11826696536536375
0.296,0.09101245294887607
0.298,0.15327783602078324
0.3,0.18991359076168995
0.302,0.2807363361559889
0.304,0.2985848831243809
0.306,0.3238329741077345
0.308,0.24808415755333865
0.31,0.24043395750601268
0.312,0.1919233369834488
0.314,0.22755923725766317
0.316,0.2011327740289264
0.318,0.30628870100899336
0.32,0.321694072963093
0.322,0.35756941864000674
0.324,0.41101426185560025
0.326,0.35690220958527397
0.328,0.3635017523279518
0.33,0.3380627201541903
0.332,0.3468925890440284
0.334,0.2985336671007484
0.336,0.3917021455595943
0.338,0.36014908721524863
0.34,0.45571202405648825
0.342,0.47527277597336837
0.34400000000000003,0.41857591266175836
0.34600000000000003,0.4410373657443116
0.34800000000000003,0.40311020421396077
0.35000000000000003,0.4834348004414353
0.352,0.4017669106631128
0.354,0.42262163775917483
0.356,0.45328231816959963
0.358,0.45629872713865816
0.36,0.3985174574259793
0.362,0.42968267112271613
0.364,0.46432186081599813
0.366,0.5854330085427787
0.368,0.42865226756777425
0.37,0.45408191932410674
0.372,0.47522081257363646
0.374,0.3596176838342328
0.376,0.36601223317240006
0.378,0.3925336713305504
0.38,0.3862946832861202
0.382,0.41972242158887835
0.384,0.45498648093962424
0.386,0.4510887385380964
0.388,0.48818579366363035
0.39,0.320759385891024
0.392,0.3808248919449558
0.394,0.2452166469557162
0.396,0.301023132699478
0.398,0.2138920307366406
0.4,0.3556173338780687
0.402,0.3973583169325743
0.404,0.300828874408148
0.406,0.39754090053760377
0.40800000000000003,0.32885282090750834
0.41000000000000003,0.2318564413246246
0.41200000000000003,0.18578468785604926
0.41400000000000003,0.21425231700624953
0.41600000000000004,0.16746328349515444
0.418,0.17995872352320652
0.42,0.276296401420967
0.422,0.28630692302876337
0.424,0.26524878137705854
0.426,0.22264254911348097
0.428,0.1719653880258013
0.43,0.1982255867404339
0.432,0.12211510342021407
0.434,0.1918893920642326
0.436,0.1053892573055116
0.438,0.16998644534732127
0.44,0.13839080499859074
0.442,0.1979114090129453
0.444,0.15090021082287688
0.446,0.2308830908298321
0.448,0.13330849512494924
0.45,0.11244682366194594
0.452,0.14103437604144697
0.454,0.06956212245479265
0.456,0.15520576719567708
0.458,0.10259471039580428
0.46,0.11067902172399245
0.462,0.14370015522674318
0.464,0.1442729025013672
0.466,0.139336664948862
0.468,0.2063760624569369
0.47000000000000003,0.1261637968009942
0.47200000000000003,0.10334402741231627
0.47400000000000003,0.10728927307884278
0.47600000000000003,0.04324524241579761
0.47800000000000004,0.06529733485499896
0.48,0.06710548960432845
0.482,0.16535822668320657
0.484,0.19608625955150905
0.486,0.16455814612615105
0.488,0.14157496879390752
0.49,0.1813721066406622
0.492,0.0531697765933231
0.494,0.07317464887328028
0.496,0.0038973117955208095
0.498,0.08548728612338485
0.5,0.09863284407515646
0.502,0.19908011630569827
0.504,0.14117692698168613
0.506,0.21363655615470584
0.508,0.17567629335805449
0.51,0.09731991412013292
0.512,0.07557567520854322
0.514,0.0001835455961402832
0.516,0.057920112422698566
0.518,0.10758083073060472
0.52,0.180274402253155
0.522,0.14721013746170342
0.524,0.19110446917151208
0.526,0.13745886257097498
0.528,0.10594865179904418
0.53,0.10740309442070824
0.532,0.08997994112043411
0.534,0.03415794679611031
0.536,0.10376666783057664
0.538,0.1277935963174392
0.54,0.13099880809275574
0.542,0.14309213343576996
0.544,0.14921967094736172
0.546,0.10885251203366325
0.548,0.15631072758193984
0.55,0.07486566692434887
0.552,0.10684646745477436
0.554,0.09990185855680321
0.556,0.11126155908615482
0.558,0.08326903422677609
0.56,0.1267529596152585
0.562,0.15851161360671964
0.5640000000000001,0.08407625668950958
0.5660000000000001,0.13031465934891773
0.5680000000000001,0.17061833356048736
0.5700000000000001,0.14058482534730293
0.5720000000000001,0.1359091179379873
0.5740000000000001,0.05378775386945037
0.5760000000000001,0.04014861499908983
0.578,0.0540437342640117
0.58,0.0625623522974961
0.582,0.16644083204099497
0.584,0.1922215422964438
0.586,0.16910933591690894
0.588,0.1709420080841326
0.59,0.13117652419251316
0.592,0.13170313456665653
0.594,5.401838394920866e-05
0.596,0.026557467473446103
0.598,0.08505038418497662
0.6,0.11380914399661148
0.602,0.17606872355748912
0.604,0.1925135916960185
0.606,0.1697658904579229
0.608,0.16583126292728745
0.61,0.022337831452713022
0.612,0.11070689650745794
0.614,0.04891463761388593
0.616,0.07710393615822775
0.618,0.07128430416179907
0.62,0.14208922598655302
0.622,0.18788773477948711
0.624,0.17060942384035538
0.626,0.20016262943215815
0.628,0.12817739962573282
0.63,0.06029520983836985
0.632,0.13983322376452673
0.634,0.08891066695002106
0.636,0.1525882056515524
0.638,0.09695726691717763
0.64,0.2249533253798236
0.642,0.1820035775972571
0.644,0.28417347161482354
0.646,0.17619344122285152
0.648,0.25809468583557205
0.65,0.2207973612634887
0.652,0.2076988692974813
0.654,0.3020107095618929
0.656,0.21794353646790718
0.658,0.27173426657779265
0.66,0.3023457931232442
0.662,0.2970089189421567
0.664,0.3916547035993451
0.666,0.3696156720236217
0.668,0.41506591470409426
0.67,0.36426515108782576
0.672,0.38554679669413766
0.674,0.33073161158294645
0.676,0.2481232038452449
0.678,0.303465055657385
0.68,0.30868802174314286
0.682,0.3625145772018927
0.684,0.3426070919921054
0.686,0.39262293305268775
0.6880000000000001,0.34147691121286916
0.6900000000000001,0.3078651020699803
0.6920000000000001,0.241423776379253
0.6940000000000001,0.20245702905697577
0.6960000000000001,0.150847938019417
0.6980000000000001,0.11590713663365865
0.7000000000000001,0.25841853766484685
0.7020000000000001,0.2378849025158264
0.704,0.22350941649820807
0.706,0.2608233071793702
0.708,0.2044179946132082
0.71,0.13139300985864114
0.712,0.056944680331876815
0.714,0.033132867063408566
0.716,0.12562281337235778
0.718,0.10571752350166237
0.72,0.1329415050703595
0.722,0.16344197667684512
0.724,0.15264644231083477
0.726,0.15567659040652376
0.728,0.11546348213988022
0.73,0.06654816188053231
0.732,0.03681223779788505
0.734,0.060074613064674376
0.736,0.06083025361770303
0.738,0.12173803462718487
0.74,0.08051804577275552
0.742,0.14224840139336137
0.744,0.15583774387851784
0.746,0.07825799321948024
0.748,0.09006130711345306
0.75,0.10191580866094732
0.752,0.08853647407474458
0.754,0.05690919767178156
0.756,0.05925146297246753
0.758,0.11139441286399245
0.76,0.07899266604109084
0.762,0.02423920957266204
0.764,0.15750312220246065
0.766,0.12520703431800895
0.768,0.15238651849209628
0.77,0.06557049157530301
0.772,0.10839664742891372
0.774,0.04334533124948284
0.776,0.058539088108111446
0.778,0.037042687302095686
0.78,0.03963759327548591
0.782,0.12552194926062812
0.784,0.14154242688252489
0.786,0.15550154578412484
0.788,0.16331133358443983
0.79,0.07791497901267658
0.792,0.026552257321657412
0.794,0.048864937240989226
0.796,-0.041862399662686456
0.798,-0.04577722036413081
0.8,0.007182904667757216
0.802,0.042541093162779486
0.804,0.049041990324653874
0.806,0.12647792441111425
0.808,-0.006936726684011112
0.81,-0.023218578659167582
0.812,-0.07546524037025656
0.8140000000000001,-0.08477826597790654
0.8160000000000001,0.035094751113215104
0.8180000000000001,0.019915628178162566
0.8200000000000001,0.24749022622596445
0.8220000000000001,0.3638285446460185
0.8240000000000001,0.4876272768621435
0.8260000000000001,0.6505987715767889
0.8280000000000001,0.8205398044915957
0.8300000000000001,0.9322225222700544
0.8320000000000001,1.0454003802580942
0.834,0.9837095279419251
0.836,1.003346769448259
0.838,0.8499837281246011
0.84,0.6990866768639998
0.842,0.5287640970120315
0.844,0.41968889185196817
0.846,0.18251048177071005
0.848,0.08067131053509782
0.85,-0.025399669714054027
0.852,-0.04828248793692401
0.854,-0.12298415564325976
0.856,-0.10176350953143184
0.858,-0.14278529193085848
0.86,-0.16317423342141946
0.862,-0.11005149022922614
0.864,-0.13250187060955843
0.866,-0.0168162391383955
0.868,0.016912383969828214
0.87,0.007072712305274157
0.872,-0.011530063991527152
0.874,0.050406731649523695
0.876,0.00022344052077443322
0.878,-0.0022016841382537025
0.88,0.06454440589783227
0.882,0.05836176591204396
0.884,0.14540961921757448
0.886,0.09738395494299629
0.888,0.10499177722190517
0.89,0.08199908077386642
0.892,0.09619271601359117
0.894,-0.03238372808039156
0.896,-0.04056071530574756
0.898,0.03196736943464152
0.9,0.070320291139834
0.902,0.1180981689964899
0.904,0.11458123502098966
0.906,0.09957678752141008
0.908,0.0725124348634022
0.91,0.06758908111830425
0.912,-0.0018839793660126326
0.914,-0.015430832706994614
0.916,-0.023981667482440457
0.918,0.026353788403990094
0.92,0.11859740368727946
0.922,0.07046744702610666
0.924,0.11303735047201494
0.926,0.10229797263573573
0.928,0.0291998279073332
0.93,0.07367926689638442
0.932,-0.0230801829988252
0.934,-0.0029260042729243214
0.936,0.06092602883394879
0.9380000000000001,-0.0022459200559031417
0.9400000000000001,0.06511793588980024
0.9420000000000001,0.0639222343792131
0.9440000000000001,0.09519323761385012
0.9460000000000001,0.06528148348973016
0.9480000000000001,0.08284137668361043
0.9500000000000001,-0.006709622551105743
0.9520000000000001,0.08500788113261085
0.9540000000000001,0.02269145624423529
0.9560000000000001,0.004125490519931168
0.9580000000000001,-0.008755840673288107
0.96,0.038279373235504364
0.962,0.032587791622009456
0.964,0.05295458485832137
0.966,0.07599340881868323
0.968,0.0999277952677438
0.97,0.05506183150487453
0.972,0.050539696782157494
0.974,-0.04141541610447763
0.976,0.014269331498692965
0.978,0.01877444272663195
0.98,-0.05443330087317799
0.982,0.05219249022252577
0.984,0.08760590174759328
0.986,0.08098068477737634
0.988,0.14820204420097152
0.99,0.020225222930637617
0.992,0.025110221721735736
0.994,-0.007774315975576256
0.996,-0.07294477575827542
0.998,-0.02838698554223409
1.0,0.009142533756266027
1.002,0.08311386810533442
1.004,0.10412899191415549
1.006,0.10953990322672301
1.008,0.03709054156963561
1.01,0.055429209643369656
1.012,-0.06564232958260863
1.014,-0.04015274855943972
1.016,-0.026737069028434705
1.018,-0.0143177245028623
1.02,0.08582483139630398
1.022,0.0992960544012604
1.024,0.06667817216909042
1.026,0.024687145126680243
1.028,0.011738746561666433
1.03,0.01784691644141133
1.032,-0.0037726027911978016
1.034,-0.033780598570421407
1.036,0.007337446821843469
1.038,0.010716558651589847
1.04,0.02034068278218229
1.042,0.036850380766662416
1.044,0.06521503355176766
1.046,0.0271662506181927
1.048,0.04580587330609262
1.05,0.011444791588376399
1.052,-0.019368615053667937
1.054,-0.015840247268251426
1.056,0.016393824796277913
1.058,-0.012562931898516221
1.06,-0.0535148348909221
1.062,0.07202999160687372
1.064,0.021908424878908553
1.066,0.08341797491410169
1.068,-0.015338090461230885
1.07,0.06251330345668785
1.072,0.0259544798187162
1.074,-0.02536773861452898
1.076,-0.051018631278545126
1.078,-0.04609298512917638
1.08,-0.03309091347169643
1.082,0.05325556741999344
1.084,0.0805488205443846
1.086,0.07741821016207476
1.088,0.058903673320494745
1.09,0.08246064175965538
1.092,-0.06195476927740118
1.094,-0.030628516598847397
1.096,-0.08149637395236634
1.098,0.004443219630821879
1.1,-0.0517333262346783
1.102,0.13640918921293724
1.104,0.0765019566164352
1.106,0.1418882893834619
1.108,0.06910785693211019
1.11,-0.018156044407111282
1.112,-0.019936740806328495
1.114,0.010521268843021965
1.116,-0.013113317146585438
1.118,0.06539191938501918
1.12,0.04300878394454016
1.122,0.09641512298981757
1.124,0.18014271370191634
1.1260000000000001,0.11598928113050541
1.1280000000000001,0.08044868862656565
1.1300000000000001,0.11092943851087156
1.1320000000000001,0.06999076154240462
1.1340000000000001,0.006613525084839228
1.1360000000000001,0.11367526713132672
1.1380000000000001,0.11319628756220532
1.1400000000000001,0.14657783123570123
1.1420000000000001,0.17527933763407227
1.1440000000000001,0.1906733362787214
1.1460000000000001,0.1505819288278457
1.1480000000000001,0.21349567380815304
1.1500000000000001,0.16259069511638677
1.1520000000000001,0.18743140375938516
1.154,0.19662161024491714
1.156,0.16709449729609305
1.158,0.20060429711280076
1.16,0.2566948626792652
1.162,0.21905407353553646
1.164,0.26736461977727016
1.166,0.3315693276857951
1.168,0.2943330821632192
1.17,0.2833603822569023
1.172,0.302957561593018
1.174,0.25522480255370467
1.176,0.2193404404260463
1.178,0.2627934533724236
1.18,0.306553288999386
1.182,0.34839927964220885
1.184,0.35970813940836294
1.186,0.3128054313790048
1.188,0.4287375273419218
1.19,0.36949519018773674
1.192,0.25854210061601063
1.194,0.30188225082753967
1.196,0.19134609726657403
1.198,0.29956407959549286
1.2,0.3338162415867548
1.202,0.3585202240675484
1.204,0.40377092695744504
1.206,0.38431005936098406
1.208,0.29337548762920795
1.21,0.3175567233773393
1.212,0.18736775718129473
1.214,0.21487843170422197
1.216,0.2320065080813796
1.218,0.24564183634776182
1.22,0.27756691430047814
1.222,0.31017934656867974
1.224,0.30313126154546444
1.226,0.2609831326427667
1.228,0.19305209234594106
1.23,0.13641899856916645
1.232,0.16152757593150224
1.234,0.1459694423449725
1.236,0.10698727617095839
1.238,0.17440066638687513
1.24,0.17351933101596048
1.242,0.15688119286627017
1.244,0.13860438318529533
1.246,0.1262327607409076
1.248,0.13504240746872476
1.25,0.08843078525354808
1.252,0.10418326032006547
1.254,0.028236290535923206
1.256,-0.024816031603358574
1.258,0.08353893588525732
1.26,0.04445534657900943
1.262,-0.009343236424639634
1.264,0.07297764993851065
1.266,0.09745675010831516
1.268,0.08669182960382023
1.27,0.0004945793008029539
1.272,0.06157207515901972
1.274,-0.03547925247560661
1.276,-0.07989948332355229
1.278,-0.04622997908855099
1.28,-0.06006859718360706
1.282,-0.02518741772196569
1.284,0.0804680629952472
1.286,0.06542838600388916
1.288,0.039853423847973135
1.29,-0.031288482515306436
1.292,-0.03930108625317419
1.294,-0.11380516174091036
1.296,-0.08424548108343854
1.298,-0.12230388804502199
1.3,-0.010828082494887925
1.302,0.02261457732002642
1.304,0.040729918742304715
1.306,0.018349259128003025
1.308,-0.020424436027784078
1.31,-0.04463606396217524
1.312,-0.10397347174979288
1.314,-0.1435006977993479
1.316,-0.09783968144841079
1.318,-0.012979192782252014
1.32,-0.044482861797503215
1.322,0.013322618247347776
1.324,0.04439880690694874
1.326,-0.042065467128258434
1.328,-0.04220089733544572
1.33,-0.08917722851171053
1.332,-0.05418745374509277
1.334,-0.10866618292039729
1.336,-0.06968452385793697
1.338,-0.028372535948660543
1.34,-0.029072661843471518
1.342,-0.041543798075035665
1.344,-0.009791312375069087
1.346,-0.09283632732417306
1.348,-0.0126548920228856
1.35,-0.056079319143145775
1.352,-0.05532702486136953
1.354,-0.055523335348816504
1.356,-0.0958265654354525
1.358,-0.05613931662391567
1.36,-0.07687371211327762
1.362,-0.08934581901694008
1.364,0.013366540445148671
1.366,-0.018569975258277846
1.368,-0.02794555358093187
1.37,-0.020944845268317074
1.372,-0.06203848745460451
1.374,-0.09757042157119504
1.3760000000000001,-0.13346347039232065
1.3780000000000001,-0.05979203470498029
1.3800000000000001,-0.11946444320003874
1.3820000000000001,-0.024883239526434307
1.3840000000000001,0.0022555361005484695
1.3860000000000001,0.023325247391480355
1.3880000000000001,-0.022225191089043795
1.3900000000000001,-0.01967845584686379
1.3920000000000001,-0.0734465093044571
1.3940000000000001,-0.1518928207629844
1.3960000000000001,-0.16988387258489127
1.3980000000000001,-0.060820967079879336
1.4000000000000001,-0.05483720055288524
1.4020000000000001,-0.011089757632942232
1.4040000000000001,0.03317686343193042
1.4060000000000001,0.0033881934710658264
1.408,-0.007527649883355563
1.41,-0.10786753842674827
1.412,-0.09111838407755646
1.414,-0.1327691476784808
1.416,-0.12184221753494674
1.418,-0.02598163865926692
1.42,-0.07397699811475753
1.422,-0.027171704878652468
1.424,0.05754875040403413
1.426,-0.052736240246824675
1.428,-0.05353244967063849
1.43,-0.10141097658451484
1.432,-0.07698608614039683
1.434,-0.11401866336936714
1.436,-0.08951320969350741
1.438,-0.035331087818764505
1.44,-0.04698875592228298
1.442,-0.009966882712051608
1.444,-0.02770084493257154
1.446,-0.0359426131980498
1.448,-0.10017721714567693
1.45,-0.008811166345889236
1.452,-0.0935774992763487
1.454,-0.09302255454842921
1.456,-0.06597064285491071
1.458,-0.05501810792073092
1.46,-0.05526507476661971
1.462,-0.03589819243492791
1.464,-0.00783956210533804
1.466,0.028180029606510965
1.468,0.004064705882618504
1.47,0.03641099277029213
1.472,-0.011777826927216347
1.474,-0.06785963670027972
1.476,-0.00015665461331983155
1.478,-0.058055405447988206
1.48,0.03370093105315396
1.482,0.07687985818406778
1.484,0.09863237503245684
1.486,0.18202126304524158
1.488,0.17981695262710942
1.49,0.10028272830119578
1.492,0.12616526225243635
1.494,0.0741176075927928
1.496,0.043301130263439444
1.498,0.16890019412977508
1.5,0.14703299122822622
1.502,0.2723417467105811
1.504,0.2252565289642508
1.506,0.2597473983480524
1.508,0.26651147429481037
1.51,0.12861266084194414
1.512,0.168159127187851
1.514,0.06512377779680326
1.516,0.05787956161092128
1.518,0.18500214810209945
1.52,0.15886848921888147
1.522,0.19385098232784637
1.524,0.14771045277601086
1.526,0.16506737205437155
1.528,0.06200496480748068
1.53,0.05435974829384027
1.532,0.0017332909939510605
1.534,-0.011082497797516121
1.536,0.011178766584820917
1.538,0.028050547865504483
1.54,0.05681486846803743
1.542,-0.04321581481751223
1.544,0.033452459520991795
1.546,-0.014816284525517063
1.548,-0.004962992190060311
1.55,-0.03484225076331886
1.552,-0.021159293770781875
1.554,-0.08154457984087837
1.556,-0.07233976202518333
1.558,-0.056266579434212455
1.56,-0.10665814319573233
1.562,-0.02676895739515567
1.564,-0.03626266956298763
1.566,-0.013051357514157142
1.568,-0.03674279643823594
1.57,0.002761371524578931
1.572,-0.07363227287563404
1.574,-0.05327938080123059
1.576,-0.11481567570948076
1.578,-0.1373474211592965
1.58,-0.06943255668102843
1.582,-0.07006637740192656
1.584,0.017180721161021394
1.586,0.005106578113326647
1.588,-0.004282861781973471
1.59,-0.005324795166834196
1.592,-0.09012732545817831
1.594,-0.11848338169069347
1.596,-0.10519139379740351
1.598,-0.14976875615498197
1.6,-0.015212021151573073
1.602,-0.06447831338509386
1.604,0.0445121327287407
1.606,-0.00592588638732321
1.608,0.017490649398763665
1.61,-0.05839536253224091
1.612,-0.10583656094727623
1.614,-0.13452084950755694
1.616,-0.1202578680569947
1.618,-0.0451334378106104
1.62,-0.03927489652276535
1.622,0.05187288104589778
1.624,-0.0016437309233643255
1.6260000000000001,-0.028588263763051364
1.6280000000000001,-0.05905631092815031
1.6300000000000001,-0.12858219646312458
1.6320000000000001,-0.1830242645415497
1.6340000000000001,-0.13702522252900598
1.6360000000000001,-0.11110666746267936
1.6380000000000001,-0.18926094300904991
1.6400000000000001,-0.10128561075133016
1.6420000000000001,-0.1364053304389593
1.6440000000000001,-0.12804168088423504
1.6460000000000001,-0.08012020064166289
1.6480000000000001,-0.11721377646630812
1.6500000000000001,-0.11357638141179219
1.6520000000000001,-0.0471422586898597
1.6540000000000001,0.15340329158956054
1.6560000000000001,0.18845594351669523
1.6580000000000001,0.34746107820476085
1.6600000000000001,0.5154194491138472
1.6620000000000001,0.7283119142748307
1.6640000000000001,0.9025468620240734
1.666,1.019789443688422
1.668,0.9552156018169029
1.67,0.9448769861310214
1.672,0.6472763038822729
1.674,0.42712688491628453
1.676,0.29945411922164655
1.678,0.16513023034487184
1.68,0.023044322511984128
1.682,-0.011696678009051387
1.684,-0.14215457615495466
1.686,-0.08386199431954139
1.688,-0.13025036323650374
1.69,-0.21938125609897152
1.692,-0.2938360218177718
1.694,-0.28853852727779417
1.696,-0.2813001497931557
1.698,-0.27624493958958046
1.7,-0.19260987567091403
1.702,-0.08992822859292823
1.704,0.027335063807094204
1.706,-0.011405478008068775
1.708,-0.002822142970657652
1.71,-0.03973285130045788
1.712,-0.1220563888865294
1.714,-0.1117761513628821
1.716,-0.08019044087293606
1.718,-0.006372552317821967
1.72,0.004117537268824065
1.722,-0.005916690918597943
1.724,0.005115373456252827
1.726,0.011349751549727597
1.728,-0.0217574985159352
1.73,-0.061652241020878
1.732,-0.06501457835561729
1.734,-0.06244691799979425
1.736,-0.0596407328964451
1.738,-0.019311036718674762
1.74,-0.005522618283092693
1.742,-0.021505623098034166
1.744,0.014303477023169007
1.746,-0.030442536905340413
1.748,-0.0272592400481671
1.75,0.015136602871990892
1.752,-0.0644493302604485
1.754,-0.053047417926486554
1.756,-0.043557261831815484
1.758,-0.019384664324655177
1.76,-0.050412809310328044
1.762,-0.04241962228356844
1.764,0.04142930504878921
1.766,-0.013127688058092779
1.768,0.04351650834554403
1.77,-0.01875205501055966
1.772,-0.027001861057371707
1.774,-0.03700800220380131
1.776,-0.11894708512202573
1.778,-0.034018832181713206
1.78,-0.07780096707732755
1.782,0.021692511433116093
1.784,0.025507931457166955
1.786,0.061010331668417704
1.788,0.05127356585194473
1.79,-0.032525776368111506
1.792,-0.05114840846787876
1.794,-0.03969391529632145
1.796,-0.1517187028216796
1.798,-0.01568811942383746
1.8,-0.02637038161455306
1.802,0.02340386821050802
1.804,0.06873232534928271
1.806,0.04260491025899965
1.808,0.028510544018752318
1.81,-0.02467106940877408
1.812,-0.06795649926609712
1.814,-0.04616875861102329
1.816,-0.06319132422176807
1.818,-0.05405901122862234
1.82,0.013872878449314065
1.822,0.06947413054319355
1.824,0.05628429395007059
1.826,0.023977972185606655
1.828,0.036769532347691425
1.83,-0.06871111273241784
1.832,-0.08678459483717774
1.834,-0.0321933627308214
1.836,0.017332756042833054
1.838,-0.057685028425575
1.84,0.052700552683118164
1.842,0.03632942574643307
1.844,0.014623760217838035
1.846,0.011037666852301535
1.848,0.010582031680696005
1.85,0.004092322423574575
1.852,-0.037968608209277194
1.854,-0.015668265157226455
1.856,-0.08120601563707973
1.858,0.044305811755139576
1.86,-0.006888297806605147
1.862,0.01993296207855011
1.864,0.045696530857228225
1.866,0.011095418690332322
1.868,0.04473657318730555
1.87,0.061847840267971535
1.872,-0.019823052669184854
1.874,-0.03223307389424423
1.8760000000000001,-0.03356067134341966
1.8780000000000001,-0.0836790076543634
1.8800000000000001,0.008008354901094378
1.8820000000000001,0.03977075229490721
1.8840000000000001,0.031222564719206716
1.8860000000000001,0.11146033087974164
1.8880000000000001,0.0780897955698078
1.8900000000000001,-0.016047300954449256
1.8920000000000001,0.03945359450079631
1.8940000000000001,-0.09237012366063078
1.8960000000000001,-0.061131517271523175
1.8980000000000001,-0.025039803832177552
1.9000000000000001,0.04656197225543771
1.9020000000000001,0.07181049869923488
1.9040000000000001,0.04360593222261
1.9060000000000001,0.12640854049031708
1.9080000000000001,0.09165163286069983
1.9100000000000001,-0.04518182185431675
1.9120000000000001,-0.03753372662901094
1.9140000000000001,-0.06244283506869089
1.9160000000000001,0.05681075652346644
1.9180000000000001,-0.030672404714772783
1.92,0.03498002986929627
1.922,0.13315377763104752
1.924,0.08585049793019231
1.926,0.035157313519443116
1.928,0.04452420902710989
1.93,0.05215109636164893
1.932,-0.005449450329618964
1.934,0.013473594218425231
1.936,0.019427167302803916
1.938,0.05974954012194901
1.94,0.07667128127114521
1.942,0.10582637418721037
1.944,0.07199116240742146
1.946,0.09435647711850072
1.948,0.05106395895095199
1.95,0.17416881094818643
1.952,0.061530364141452284
1.954,0.07582489894754488
1.956,0.011963200833241414
1.958,0.2036312280456165
1.96,0.03493316811627788
1.962,0.182342893846256
1.964,0.1170680598340096
1.966,0.19944077981610375
1.968,0.18494540982833646
1.97,0.18976440002087244
1.972,0.196886706587541
1.974,0.14295693555824548
1.976,0.1143451543815086
1.978,0.2014018762830847
1.98,0.16393878614889257
1.982,0.22232268310751355
1.984,0.30269321191352516
1.986,0.3608434539337074
1.988,0.3036908990211835
1.99,0.2785339299068457
1.992,0.23923956857028952
1.994,0.2665454148209144
1.996,0.22021509781287035
1.998,0.23984475862094934
2.0,0.32797989941324945
2.0020000000000002,0.44774480160568475
2.004,0.334140787368458
2.0060000000000002,0.4947949818361389
2.008,0.393963884632517
2.0100000000000002,0.3666961930502853
2.012,0.3053346721163539
2.0140000000000002,0.2917709818786044
2.016,0.31859503352715546
2.0180000000000002,0.3798685474891924
2.02,0.457720225661248
2.0220000000000002,0.43711030874385665
2.024,0.4723350877591389
2.0260000000000002,0.4668131742795017
2.028,0.4127419688210925
2.0300000000000002,0.35568978994127337
2.032,0.3649890158660314
2.0340000000000003,0.3703225003681201
2.036,0.37103754963599916
2.0380000000000003,0.3916011472014396
2.04,0.4105118111499652
2.0420000000000003,0.3988116677083873
2.044,0.3759249881966432
2.0460000000000003,0.4140170434274464
2.048,0.39500788597793707
2.05,0.3465960668200387
2.052,0.36800863176742005
2.054,0.2869875788857072
2.056,0.3315851806290945
2.058,0.3020557560934997
2.06,0.3172685175238861
2.062,0.29490572189171194
2.064,0.2840336123212826
2.066,0.3014086379627662
2.068,0.36360652794486004
2.07,0.3010450570143876
2.072,0.22465160008370616
2.074,0.24273202203877214
2.076,0.157630293205867
2.078,0.15396264869673285
2.08,0.1983009965607868
2.082,0.22793133550482786
2.084,0.28195024779689937
2.086,0.2068337705856455
2.088,0.23635407170620523
2.09,0.2103983004236422
2.092,0.1556146190829406
2.094,0.07881224511971574
2.096,0.10231360632429196
2.098,0.12030617341472935
2.1,0.1301603601106
2.102,0.1870025287552972
2.104,0.18848015155256578
2.106,0.18444578996978528
2.108,0.1474119704828404
2.11,0.15838087094761222
2.112,0.055492385163602
2.114,0.004869641912578604
2.116,0.062248928348930824
2.118,0.10688471133311495
2.12,0.17373333010296305
2.122,0.13922667446158074
2.124,0.15920650695320296
2.126,0.1311730392769387
2.128,0.12015456732852722
2.13,0.07124336831511018
2.132,0.035249828097988545
2.134,0.11100975815084252
2.136,0.004211494125123796
2.138,0.12597701890556343
2.14,0.12495560863766295
2.142,0.11002456917201535
2.144,0.1166681984513941
2.146,0.12222332466101532
2.148,0.07104516110273916
2.15,0.1666372376866747
2.152,0.051298111084805954
2.154,0.09547860801966332
2.156,0.04148611010112247
2.158,0.06607308665368694
2.16,0.08785035738903565
2.162,0.12517253912632095
2.164,0.1095256488460054
2.166,0.17180273002406649
2.168,0.14831460836219565
2.17,0.14124996681658275
2.172,0.02972921134444477
2.174,0.06449299603334176
2.176,0.06889297357164981
2.178,0.04468124039151372
2.18,0.0707977774626601
2.182,0.126806034319629
2.184,0.1380631682590375
2.186,0.22757820297548592
2.188,0.1293225190524107
2.19,0.14628591195399257
2.192,0.08481850996575523
2.194,-0.05763046102450298
2.196,0.08759212664972868
2.198,0.03563357875660346
2.2,0.12934148444142948
2.202,0.16971692852886183
2.204,0.14056094274967873
2.206,0.22296879477081616
2.208,0.11794026999654608
2.21,0.0893493473664705
2.212,0.10675928656145184
2.214,-0.016663897745074457
2.216,0.08685358430216364
2.218,0.1124672699409315
2.22,0.11164226954779227
2.222,0.19897814937292863
2.224,0.15098174202067638
2.226,0.14362763102748935
2.228,0.1420144848631153
2.23,0.0988493441224929
2.232,0.0650766181893756
2.234,0.03802298827402225
2.236,0.14368574104165616
2.238,0.10478569502066788
2.24,0.1282087827218223
2.242,0.11741659167124846
2.244,0.15891592377447517
2.246,0.13269134187720205
2.248,0.11221616261805484
2.25,0.1398441960589386
2.2520000000000002,0.12990490412269612
2.254,0.10229139861982242
2.2560000000000002,0.04246513541788699
2.258,0.14733854419600145
2.2600000000000002,0.11516080736522831
2.262,0.07875664913858879
2.2640000000000002,0.16839552502586952
2.266,0.15507700405880198
2.2680000000000002,0.21303723107747244
2.27,0.11298609026310033
2.2720000000000002,0.12233614329686064
2.274,0.10984014377062021
2.2760000000000002,0.04560286570049403
2.278,0.06428208971399185
2.2800000000000002,0.13630549021257682
2.282,0.11877043268950037
2.2840000000000003,0.18314971714007755
2.286,0.23120249354217676
2.2880000000000003,0.18775788242059832
2.29,0.10888672685668797
2.2920000000000003,0.16268451080497198
2.294,0.06188929907325335
2.2960000000000003,0.09292968152998116
2.298,0.11966196059470506
2.3000000000000003,0.15599119081583074
2.302,0.2384163074430595
2.3040000000000003,0.2673626045227657
2.306,0.22737764782658476
2.308,0.2709401975890028
2.31,0.1330834619407572
2.312,0.20835213465080987
2.314,0.1434122864119381
2.316,0.19462383975305383
2.318,0.25918146310209145
2.32,0.30807039820980686
2.322,0.3871680091688786
2.324,0.3425018249594149
2.326,0.33325861227114145
2.328,0.38535546538978155
2.33,0.34212358266586773
2.332,0.30975480655357895
2.334,0.3702340695407022
2.336,0.35539736503444985
2.338,0.3703329842211506
2.34,0.36993895486776884
2.342,0.4518822381104646
2.344,0.3894196281603869
2.346,0.4135882729433936
2.348,0.3614942247804518
2.35,0.31888613137405736
2.352,0.37555977890333603
2.354,0.33005167688371173
2.356,0.3041123015062106
2.358,0.25890906506277445
2.36,0.2885124307668528
2.362,0.28529875943259
2.364,0.28534011705830387
2.366,0.28485538941615907
2.368,0.2509677401754288
2.37,0.28194065371223515
2.372,0.15010766060514474
2.374,0.187114292636634
2.376,0.137289344943322
2.378,0.16551124351782914
2.38,0.13600114933654084
2.382,0.16993220418936705
2.384,0.24695982324000468
2.386,0.1917182778627988
2.388,0.2304027676538705
2.39,0.12428116790300159
2.392,0.11122704331380737
2.394,0.13118989619775726
2.396,0.1077484969828236
2.398,0.06820227944946239
2.4,0.17441400952323788
2.402,0.16941704745235758
2.404,0.2442012683847508
2.406,0.21758038768067828
2.408,0.20508332248937924
2.41,0.10353341838908824
2.412,0.04747658448913244
2.414,0.11124346260482595
2.416,0.06142047108305556
2.418,0.17196923805966657
2.42,0.14900896994693646
2.422,0.22578942442302147
2.424,0.22192058882871363
2.426,0.17618984281591518
2.428,0.13826543615585216
2.43,0.1318062925749651
2.432,0.07784019987892946
2.434,0.09217805190691283
2.436,0.14841638324272463
2.438,0.13166287220542475
2.44,0.15786584976882648
2.442,0.23226904982875013
2.444,0.14268153197693756
2.446,0.13222680511458312
2.448,0.2026766708931232
2.45,0.14583470195277756
2.452,0.11780203350444902
2.454,0.1210980097723836
2.456,0.13824666193232327
2.458,0.14276887580934172
2.46,0.1390689639423989
2.462,0.08233135942596975
2.464,0.1340615146246205
2.466,0.15147830321617792
2.468,0.09301785438198282
2.47,0.1286721278228753
2.472,0.012383337201103128
2.474,0.026282304610852833
2.476,-0.040145086813664535
2.478,0.05188038947882175
2.48,0.025564612353019593
2.482,0.1129702500983448
2.484,0.19638186806247507
2.486,0.19807362090991323
2.488,0.45213292866325794
2.49,0.3921499591037975
2.492,0.6710089719055365
2.494,0.7240102627033344
2.496,0.8786984998990417
2.498,1.1053853330528427
2.5,1.1251978212156666
2.5020000000000002,1.1931659182031313
2.504,1.0296929112785038
2.5060000000000002,0.8937380252519985
2.508,0.6813964475133778
2.5100000000000002,0.4257081922210292
2.512,0.33409010746962975
2.5140000000000002,0.023866534829261404
2.516,0.06299790046013289
2.5180000000000002,0.021959782623869745
2.52,0.01783711312218647
2.5220000000000002,0.04627124548435032
2.524,-0.02517109949869409
2.5260000000000002,0.043732430682165965
2.528,-0.0488984309179973
2.5300000000000002,-0.0803982680865904
2.532,-0.06577666474660954
2.5340000000000003,-0.00995710845292197
2.536,0.01273870248785761
2.5380000000000003,0.09668955780696223
2.54,0.21213404482230727
2.5420000000000003,0.19280921882346463
2.544,0.14053636069126618
2.5460000000000003,0.1702364566089317
2.548,0.13649656836433227
2.5500000000000003,0.12837495902186902
2.552,0.21956213054194548
2.5540000000000003,0.08198362578877604
2.556,0.10905614197932306
2.5580000000000003,0.13692340905120906
2.56,0.18425175169687966
2.562,0.11075088650492657
2.564,0.1878654131547505
2.566,0.1438426746756502
2.568,0.20110977412626518
2.57,0.21226525947530364
2.572,0.14942247771376144
2.574,0.07343734523601833
2.576,0.12060813281865218
2.578,0.08440797152493434
2.58,0.1184450520714311
2.582,0.1669139713825171
2.584,0.19191148981063244
2.586,0.21165099078753785
2.588,0.19895463084673437
2.59,0.1624496008651024
2.592,0.08082959775592166
2.594,0.07828538040007853
2.596,0.08286003365678644
2.598,0.08113288678428944
2.6,0.1925574271901671
2.602,0.18290288590417192
2.604,0.1928959594764377
2.606,0.24137750801279861
2.608,0.17377106959842586
2.61,0.1584415079124304
2.612,0.08950531445139372
2.614,0.03230558278262078
2.616,0.08344742044569331
2.618,0.1412298903935114
2.62,0.19701144846965368
2.622,0.1562888028138582
2.624,0.24778662026575826
2.626,0.17144890577680008
2.628,0.09686828661218348
2.63,0.13091756304388596
2.632,0.057889610121347225
2.634,0.13940739629014554
2.636,0.08995597797019975
2.638,0.1584069330100444
2.64,0.17518657468745677
2.642,0.16717420469746966
2.644,0.17704764674772164
2.646,0.15152012510002744
2.648,0.1377121928670023
2.65,0.14538518493720776
2.652,0.10760081550659742
2.654,0.12424264296617309
2.656,0.1179400929376042
2.658,0.10686340083976575
2.66,0.14344493588085908
2.662,0.11444390321722614
2.664,0.16430752311996424
2.666,0.2018016602172984
2.668,0.15152928307566002
2.67,0.1796698836132378
2.672,0.129494161437889
2.674,0.08846160866355775
2.676,0.08099823789501977
2.678,0.06823178566414742
2.68,0.11498773827444378
2.682,0.14149104611938912
2.684,0.1642097298033473
2.686,0.24928523508959355
2.688,0.15240657669287572
2.69,0.19934223985960262
2.692,0.06404422265146831
2.694,0.08393719993620655
2.696,0.053076488142860354
2.698,0.09524638585118594
2.7,0.1107342090392145
2.702,0.19212148506184748
2.704,0.17294255260817562
2.706,0.20657771094561675
2.708,0.19935859291472913
2.71,0.1663332875017784
2.712,-0.0285588152542071
2.714,0.052767984945158615
2.716,0.09912937459507784
2.718,0.09340067849459033
2.72,0.1520860723795278
2.722,0.19419470303325018
2.724,0.20484558160912922
2.726,0.18987057517174386
2.728,0.10209907124230119
2.73,0.07034490598630345
2.732,0.10374770381869731
2.734,0.09193474937138313
2.736,0.10533072698876435
2.738,0.09946868989857428
2.74,0.14867231794870003
2.742,0.1312507521882063
2.744,0.19361809561017027
2.746,0.12806517873900422
2.748,0.13403906254664813
2.75,0.1302279172491309
2.7520000000000002,0.15222665390598145
2.754,0.06443734888273174
2.7560000000000002,0.1356504722876663
2.758,0.09973840556319487
2.7600000000000002,0.09932874940108749
2.762,0.13398080566998055
2.7640000000000002,0.18490606699099654
2.766,0.155401883391799
2.7680000000000002,0.17800333447617303
2.77,0.20044216695473013
2.7720000000000002,0.12911507554713658
2.774,0.1365779097306523
2.7760000000000002,0.07806729839863338
2.778,0.11418228870334855
2.7800000000000002,0.11508965508480419
2.782,0.11811885677349479
2.7840000000000003,0.26877741638582553
2.786,0.25552812464920055
2.7880000000000003,0.22610707168388763
2.79,0.23109666710932225
2.7920000000000003,0.183426357125217
2.794,0.07802661850714536
2.7960000000000003,0.1762894168137772
2.798,0.16417885930608359
2.8000000000000003,0.18726768719784212
2.802,0.3157829221610426
2.8040000000000003,0.28782804524299593
2.806,0.2987112237296369
2.8080000000000003,0.30514796927671795
2.81,0.23043313027569784
2.8120000000000003,0.26047384559251047
2.814,0.19647153968774042
2.816,0.2384235464789411
2.818,0.295756669558184
2.82,0.36177587738147876
2.822,0.33305893957477334
2.824,0.43535766709861523
2.826,0.3377695233363502
2.828,0.3752396005532016
2.83,0.34259250389025353
2.832,0.3232266921429504
2.834,0.33586112176750454
2.836,0.3663202396794326
2.838,0.3994117425605541
2.84,0.43561993150400924
2.842,0.42852935024494826
2.844,0.455671217383943
2.846,0.4625351003570794
2.848,0.39440151758085035
2.85,0.4502000401993177
2.852,0.41764284489843895
2.854,0.43151358463333656
2.856,0.40464457508462565
2.858,0.41456241182054415
2.86,0.45738506101206033
2.862,0.4096376015686533
2.864,0.4357662189374895
2.866,0.505536567004183
2.868,0.4775847984057858
2.87,0.4480147174711608
2.872,0.41808541826182233
2.874,0.4084976504500468
2.876,0.35661413681931736
2.878,0.3334087382468509
2.88,0.38705313566914606
2.882,0.35749622894279665
2.884,0.46296150239568507
2.886,0.4011104766333006
2.888,0.48426565859697374
2.89,0.3057416831527002
2.892,0.3222350632120994
2.894,0.23231563221801835
2.896,0.22057362706546094
2.898,0.28165681044741303
2.9,0.295415490695958
2.902,0.335757919552912
2.904,0.3398619354059352
2.906,0.33549360390267347
2.908,0.2506963636663542
2.91,0.23979349278555437
2.912,0.19438392465954496
2.914,0.12102149875031731
2.916,0.1588281181456121
2.918,0.1417600793553214
2.92,0.19779222897460028
2.922,0.2562000709788254
2.924,0.24517242557657903
2.926,0.18464223312023437
2.928,0.18847552922791816
2.93,0.08218921075033163
2.932,0.1143176821868288
2.934,0.09129951127650321
2.936,0.09071028122360171
2.938,0.15833887590102053
2.94,0.07441550907136936
2.942,0.1759712943276292
2.944,0.09466079449045679
2.946,0.16232346366371386
2.948,0.10023451861118642
2.95,0.05068456996602311
2.952,0.11043395325808593
2.954,0.06777064206051507
2.956,0.005208534065634124
2.958,0.10672341902437144
2.96,0.08218430294112175
2.962,0.02918644919900719
2.964,0.08914409549071002
2.966,0.13452912774903647
2.968,0.08692143951202629
2.97,0.09035342923040778
2.972,0.09239265838397856
2.974,0.005148637834998301
2.976,0.03566515500017894
2.978,-0.022908213118211215
2.98,0.03542830745105257
2.982,0.08127317762342509
2.984,0.09448336800946452
2.986,0.09299999202218777
2.988,0.11472793391950115
2.99,0.0930802707112266
2.992,-0.0237038290803821
2.994,0.03144475706248569
2.996,-0.037687352883989875
2.998,0.006849758808554623
3.0,0.055813151010684174
3.0020000000000002,0.1096354517124858
3.004,0.10347311155741065
3.0060000000000002,0.0958942923267489
3.008,0.08656364654461449
3.0100000000000002,0.017010733273485394
3.012,0.017168412021847004
3.0140000000000002,-0.047972498751356764
3.016,-0.015248693167657064
3.0180000000000002,0.03787285431469028
3.02,0.096084586183258
3.0220000000000002,0.10484069764036087
3.024,0.05415105955406728
3.0260000000000002,0.06696340718555255
3.028,0.06313950565785845
3.0300000000000002,0.025181924915302453
3.032,-0.019472187191549438
3.0340000000000003,0.00643433428039447
3.036,-0.01328595886098937
3.0380000000000003,0.029850389046087583
3.04,0.07873453076624248
3.0420000000000003,0.03491985883190341
3.044,0.07684921339126251
3.0460000000000003,0.025370035142394432
3.048,0.06725946787980515
3.0500000000000003,0.028626243856059577
3.052,0.008808332995741823
3.0540000000000003,0.04980386017240949
3.056,-0.04625021856118468
3.0580000000000003,0.01666935719090849
3.06,0.007005486782444569
3.0620000000000003,0.011585232552974473
3.064,0.07881147977896764
3.0660000000000003,0.07874523035537663
3.068,0.02741325982370621
3.0700000000000003,0.07781878907282375
3.072,0.015512086292320008
3.074,0.013364627632675017
3.076,-0.051451175938405355
3.078,-0.04407810513922486
3.08,-0.01745871501944609
3.082,0.059745792206162544
3.084,0.08772323970572528
3.086,0.07032746525090593
3.088,0.12167061326695432
3.09,0.00014915427873359727
3.092,-0.03691280961594898
3.094,-0.022609519030437966
3.096,-0.08886595806280928
3.098,-0.05248075404056861
3.1,0.06973068734301519
3.102,0.04885977998171512
3.104,0.1270583230279746
3.106,0.07032327913333757
3.108,0.010284559629360555
3.11,0.02465838143426194
3.112,-0.06119772905672719
3.114,-0.05102723793612705
3.116,-0.04319516218949693
3.118,-0.021462810310878412
3.12,0.05583451201811605
3.122,0.11078096317570421
3.124,0.0824452213596897
3.126,0.014704968065210343
3.128,0.06492002546371473
3.13,0.003744363446588378
3.132,-0.038111041181449465
3.134,0.022503436923363783
3.136,0.05512059988372262
3.138,0.043476985398761714
3.14,0.06455019714045739
3.142,0.07669163722910004
3.144,0.14199262495215575
3.146,0.13570721348026382
3.148,0.09268509097976019
3.15,0.13077500786756127
3.152,0.1134448880464344
3.154,0.16947367833494092
3.156,0.11829534829668029
3.158,0.1700883104670552
3.16,0.1783635600126807
3.162,0.22340141023985371
3.164,0.24883666594434892
3.166,0.27397897370404983
3.168,0.27617097218215286
3.17,0.25467774809987825
3.172,0.27230440503269676
3.174,0.15161893771518226
3.176,0.20450894742111936
3.178,0.16618338844934274
3.18,0.20444954319808034
3.182,0.23197839875153284
3.184,0.2567309726305002
3.186,0.3120775679286388
3.188,0.19888429113397224
3.19,0.15953614506750569
3.192,0.16922240133291427
3.194,0.019348572370490313
3.196,0.04450717953062526
3.198,0.08714865520345742
3.2,0.12037115591742797
3.202,0.06134592343079283
3.204,0.1824983858031185
3.206,0.13636942053694315
3.208,0.0219254160805746
3.21,0.019275312616170062
3.212,-0.04294606981467621
3.214,-0.028824775595059932
3.216,-0.008564430946727694
3.218,-0.0751663379584041
3.22,0.05721527301528241
3.222,0.01549987972250462
3.224,0.051413860224243935
3.226,0.0004391015013168152
3.228,0.031158587420730893
3.23,-0.04209143923983822
3.232,-0.03906106049313303
3.234,-0.04591347532474961
3.236,-0.09767810874456923
3.238,-0.023572460566810612
3.24,0.0052752137082565966
3.242,0.017783720584439482
3.244,-0.029709297432973326
3.246,0.029899237967875195
3.248,-0.07298251236862989
3.25,-0.028028302832842023
3.2520000000000002,0.004017816303566957
3.254,-0.0639588449183591
3.2560000000000002,-0.029088787466554866
3.258,-0.05118337041363955
3.2600000000000002,-0.04758134881843144
3.262,-0.06056957339614172
3.2640000000000002,0.005684707087106793
3.266,0.010835573122954857
3.2680000000000002,0.006233702029089586
3.27,0.04373515485679394
3.2720000000000002,-0.08392107279405012
3.274,-0.03270233687208607
3.2760000000000002,-0.08208159014257012
3.278,-0.11388083896823194
3.2800000000000002,-0.0328560053891339
3.282,-0.04051852332099881
3.2840000000000003,0.025304855474265787
3.286,0.021519630041923296
3.2880000000000003,0.022557946521981294
3.29,-0.024273157247726482
3.2920000000000003,-0.008531946319565803
3.294,-0.17457332648669957
3.2960000000000003,-0.14239189745112033
3.298,-0.13635429722502207
3.3000000000000003,-0.11821371059034111
3.302,-0.030522163949364335
3.3040000000000003,-0.10393920200766607
3.306,-0.04262007684566071
3.3080000000000003,-0.0907851470652894
3.31,-0.14858837235420974
3.3120000000000003,-0.15455442119458976
3.314,-0.23655099992963857
3.3160000000000003,-0.13979683424549888
3.318,-0.07592808287627706
3.3200000000000003,0.16350963375801192
3.322,0.22504386759630596
3.3240000000000003,0.3994549991979056
3.326,0.5594107919539855
3.3280000000000003,0.6689531062849585
3.33,0.7890382668475169
3.332,0.9442898181738111
3.334,0.8653377185945981
3.336,0.8878516962443298
3.338,0.7285095897006157
3.34,0.548930709258481
3.342,0.44543177026380465
3.344,0.2629198769601601
3.346,0.1385249136029894
3.348,-0.10321536985131598
3.35,-0.11838558364274113
3.352,-0.18341353374892055
3.354,-0.20628894831912378
3.356,-0.2427755442978428
3.358,-0.2816608643196026
3.36,-0.23578687235304438
3.362,-0.26803889203402603
3.364,-0.1840466933136361
3.366,-0.16706454962051778
3.368,-0.12002701045272
3.37,-0.09482141929393256
3.372,-0.06703856977408502
3.374,-0.12133902693940604
3.376,-0.07452780733762518
3.378,-0.12479110306458
3.38,-0.08414485247603448
3.382,-0.03379031125070623
3.384,0.00987917218450643
3.386,0.04858317234295545
3.388,-0.010275498005850078
3.39,-0.046131118499957324
3.392,-0.055620970694765445
3.394,-0.1377078522173482
3.396,-0.1304620732108716
3.398,-0.13152653186065125
3.4,-0.050859524268936404
3.402,0.015145318112040992
3.404,0.020095469173796475
3.406,0.03482047635313966
3.408,-0.016316883816646543
3.41,-0.09614206247223452
3.412,-0.12348301443360553
3.414,-0.12552250346755575
3.416,-0.08549260594502348
3.418,-0.054866263634476754
3.42,-0.05671220839536765
3.422,0.011271971459125249
3.424,0.004270233550461965
3.426,0.003924988273747151
3.428,-0.09562263314773403
3.43,-0.10301948097202698
3.432,-0.07662097879391658
3.434,-0.09080724373706635
3.436,-0.10019572556817287
3.438,-0.046277059976789214
3.44,-0.04074193819345348
3.442,0.013282302780723738
3.444,-0.005027609522339618
3.446,-0.1182484514838272
3.448,-0.009832134036219277
3.45,-0.05557400399004937
3.452,-0.07813434732382757
3.454,-0.10396591352278263
3.456,-0.07167138611882601
3.458,-0.04040384580641225
3.46,-0.1148354255075609
3.462,-0.02523225992970555
3.464,-0.09383666723909809
3.466,0.04371394972900673
3.468,-0.04756131312620119
3.47,-0.018024400125157068
3.472,-0.061718150636817494
3.474,-0.09313728982309498
3.476,-0.16205171229562607
3.478,-0.0223888107537501
3.48,-0.12978559378689722
3.482,-0.03267536941313548
3.484,-0.054089939551762736
3.486,0.03823397479751911
3.488,-0.033952317662357526
3.49,-0.020271595847146474
3.492,-0.074846107554551
3.494,-0.15810661922482322
3.496,-0.12680938322778054
3.498,-0.11906738899019664
3.5,-0.04968600185455303
3.5020000000000002,0.028173702170526956
3.504,0.051047309396949146
3.5060000000000002,-0.057271765150339486
3.508,-0.002135224109831798
3.5100000000000002,-0.10209769510460584
3.512,-0.0974028254965941
3.5140000000000002,-0.12023039778288509
3.516,-0.1270270381472437
3.5180000000000002,-0.12594542105713555
3.52,-0.0015386302715616994
3.5220000000000002,0.021142835089060754
3.524,-0.02410214876912871
3.5260000000000002,-0.03802343034677739
3.528,-0.04090402361883146
3.5300000000000002,-0.09974133742963304
3.532,-0.08508379631337762
3.5340000000000003,-0.07449380597375233
3.536,-0.102532731175608
3.5380000000000003,-0.059511473524500855
3.54,-0.06481527455138437
3.5420000000000003,-0.01848966389180497
3.544,-0.013390243769301733
3.5460000000000003,-0.032702972187546475
3.548,-0.06088622626878733
3.5500000000000003,-0.11143895222496536
3.552,-0.00824630021646372
3.5540000000000003,-0.08740667317212973
3.556,-0.07844152616142044
3.5580000000000003,-0.09366197469967573
3.56,-0.08608014580916283
3.5620000000000003,-0.031628987488392685
3.564,-0.06418462950973074
3.5660000000000003,-0.010425183865511226
3.568,0.01759987308407694
3.5700000000000003,-0.03509936964191491
3.572,-0.038816337107901416
3.5740000000000003,-0.11891032428397805
3.576,-0.1132680829281165
3.5780000000000003,-0.1350832475291105
3.58,-0.016261474669483925
3.5820000000000003,-0.09131087131737803
3.584,0.03784343867022036
3.586,-0.017918005650602198
3.588,0.017169166193802907
3.59,-0.008868759791101567
3.592,-0.0944878749705279
3.594,-0.1328619400960237
3.596,-0.1008192694578121
3.598,-0.049595037189554915
3.6,-0.029857060804646493
3.602,0.00786262524299005
3.604,0.040879313255188544
3.606,0.0659435776478981
3.608,0.0029179700162888043
3.61,-0.02070200687117142
3.612,-0.1283215814846141
3.614,-0.04214824118972
3.616,-0.07325045894603739
3.618,0.014807654726090934
3.62,0.06491419635597956
3.622,0.016547789808392867
3.624,0.10302107829652335
3.626,0.10445775515087752
3.628,0.0170376828752143
3.63,-0.005324892158715483
3.632,0.03792508250829979
3.634,0.021928499175858523
3.636,0.09184683420676024
3.638,-0.015189637596449326
3.64,0.11655201415036306
3.642,0.14887575581331358
3.644,0.1595312872053888
3.646,0.14658329212333582
3.648,0.11312920251758486
3.65,0.13601845365145948
3.652,0.17526503121552445
3.654,0.12729100408352895
3.656,0.09877666691919468
3.658,0.21762956861864208
3.66,0.17122445443978287
3.662,0.22288725809391535
3.664,0.24185743556255357
3.666,0.2632934026329962
3.668,0.283475002629216
3.67,0.2534099898380651
3.672,0.236943227338749
3.674,0.27510881611315213
3.676,0.199216969394765
3.678,0.17936448746757708
3.68,0.278749997231301
3.682,0.3328224604500297
3.684,0.3415339059386746
3.686,0.3581870246708464
3.688,0.35823836249233065
3.69,0.32582615585590735
3.692,0.26753173556629845
3.694,0.23676128339644142
3.696,0.21107499726442536
3.698,0.3027484568924994
3.7,0.23304089621016583
3.702,0.37893227067498925
3.704,0.3957101304025522
3.706,0.2949208873878626
3.708,0.30635951011223483
3.71,0.29041780881000523
3.712,0.2571991760056543
3.714,0.16592589439358352
3.716,0.19617009382825928
3.718,0.28841000226438934
3.72,0.27691881054808876
3.722,0.21708693397377118
3.724,0.2870291012644279
3.726,0.2604464949168081
3.728,0.18563601130569976
3.73,0.17636182465871478
3.732,0.13667827345961775
3.734,0.1223529099598721
3.736,0.10866974606468324
3.738,0.14934922844066506
3.74,0.17454300918574892
3.742,0.17176312561648627
3.744,0.15904800853052817
3.746,0.10564982814900245
3.748,0.10914537116388152
3.75,0.06377461860921024
3.7520000000000002,0.11603056163249742
3.754,0.04782870413496363
3.7560000000000002,0.03652432954168325
3.758,0.037090526170722324
3.7600000000000002,0.05163100583462441
3.762,0.04920978964556082
3.7640000000000002,0.0669588934977075
3.766,0.056177657010965554
3.7680000000000002,0.08264027955378728
3.77,0.08640325062448795
3.7720000000000002,-0.013294427937019748
3.774,-0.051950858340238736
3.7760000000000002,-0.04981416483835647
3.778,-0.005415349205474554
3.7800000000000002,0.004293652706832591
3.782,-0.04872101567966235
3.7840000000000003,0.09989926264273627
3.786,0.0925691233265595
3.7880000000000003,-0.03205903454455551
3.79,0.028536968205464953
3.7920000000000003,-0.01080828137688588
3.794,-0.0778715843372225
3.7960000000000003,-0.08359439099961298
3.798,-0.07613266871267352
3.8000000000000003,-0.023611015810995555
3.802,0.042351556511340614
3.8040000000000003,0.040188069196712424
3.806,0.05928791886428962
3.8080000000000003,0.03850767444996442
3.81,-0.047062609722722075
3.8120000000000003,-0.0944005784758773
3.814,-0.09865390805475321
3.8160000000000003,-0.05748279552305991
3.818,-0.023011093332469684
3.8200000000000003,0.050680633288090575
3.822,0.0065158124820680965
3.8240000000000003,0.08731224951542757
3.826,-0.03845401864624698
3.8280000000000003,-0.02359165730915026
3.83,-0.02593390879296014
3.8320000000000003,-0.05095731810374921
3.834,-0.06092723370323862
3.8360000000000003,-0.012552217294739147
3.838,-0.022510857862520082
3.84,0.011736382107955573
3.842,0.004716389518868835
3.844,-0.06295822727369146
3.846,0.07316212726248549
3.848,-0.038886477806555145
3.85,0.0012995733557212962
3.852,-0.01605962442732139
3.854,-0.015772355060135308
3.856,-0.03886615063240258
3.858,-0.04289816357434015
3.86,-0.05080768399400386
3.862,-0.01878492983011934
3.864,0.05873844973823453
3.866,0.04860287710466232
3.868,0.006726888479024248
3.87,0.016485547516761585
3.872,-0.011265502476268681
3.874,-0.022814340475652513
3.876,-0.08657644420923208
3.878,-0.07725646086832436
3.88,-0.0023156561031845574
3.882,0.011564400286604257
3.884,0.06184863642415141
3.886,0.02083103607695007
3.888,0.0753184601153251
3.89,0.0020522402182730857
3.892,-0.022844008257437626
3.894,-0.05414317558584931
3.896,-0.08798883183311963
3.898,-0.04831743320193917
3.9,0.022053779819942314
3.902,0.03379050419298678
3.904,0.06672969193323812
3.906,0.11269624331418768
3.908,0.015097974207421348
3.91,-0.012358279111541302
3.912,-0.026632533639208308
3.914,-0.09440949780293148
3.916,-0.0795071838801873
3.918,-0.001741947839237843
3.92,0.03695281356542727
3.922,0.0752187863902703
3.924,0.08581213191725559
3.926,0.03175131910930294
3.928,0.02708385133434255
3.93,-0.012395977037718262
3.932,-0.06287478786401698
3.934,-0.022106238642522633
3.936,-0.03190848746858384
3.938,-0.02652570652624658
3.94,0.09401464988882766
3.942,0.05059347199441003
3.944,-0.01361572168861657
3.946,0.0448696387792015
3.948,0.06725451614478464
3.95,0.014272890126228786
3.952,-0.006582392171699605
3.954,0.019109928639727766
3.956,-0.03169663760550258
3.958,0.005480379349976187
3.96,0.060131117752778296
3.962,-0.012983718003667627
3.964,0.11389890724075219
3.966,0.07168796223432103
3.968,0.1014426012728281
3.97,0.11314782948971973
3.972,0.06437587722010041
3.974,0.09885732355343649
3.976,-0.0014222441068459796
3.978,0.028103939434206224
3.98,0.12559376404880285
3.982,0.1373534727954607
3.984,0.24371230590262274
3.986,0.2136320279582686
3.988,0.2602775695702793
3.99,0.20081648430069846
3.992,0.18111746123903036
3.994,0.24426833565210737
3.996,0.0953253608156901
3.998,0.21777667347288465
4.0,0.25756288965789076
4.002,0.35384131869745017
4.0040000000000004,0.3240561548338791
4.006,0.35291353442310286
4.008,0.32813438081138735
4.01,0.26199009946636403
4.0120000000000005,0.20179120208631965
4.014,0.24096081971708294
4.016,0.1586660508426675
4.018,0.2518867624948067
4.0200000000000005,0.24597544839931276
4.022,0.2710278773594287
4.024,0.2925008154204807
4.026,0.2531939544264815
4.0280000000000005,0.10970421140327094
4.03,0.17059784119186353
4.032,0.1339347787379982
4.034,0.06043999975769788
4.0360000000000005,0.13377367447123825
4.038,0.11798377525970356
4.04,0.1073754720671236
4.042,0.13709151805180886
4.0440000000000005,0.07510078157536254
4.046,0.12139359815711524
4.048,0.05996615823122517
4.05,0.07096946071760117
4.0520000000000005,0.05191682332952741
4.054,0.05820632595225085
4.056,0.061392920680111256
4.058,-0.0540604676785611
4.0600000000000005,0.09752320267999429
4.062,0.039787981509757035
4.064,0.029719424357355993
4.066,0.10819506708278798
4.0680000000000005,0.12173850234276687
4.07,0.08459981767108325
4.072,0.013584647914819559
4.074,0.03224022382705398
4.0760000000000005,0.03273412974917791
4.078,-0.05384969600090832
4.08,0.06208334133088029
4.082,0.0727606272368353
4.0840000000000005,0.11437005156005878
4.086,0.11629144382756423
4.088,0.11757230638540166
4.09,0.017257379563636127
4.0920000000000005,0.06074374292346257
4.094,-0.03764231166321807
4.096,-0.03780850564472028
4.098,0.05157069739336677
4.1,0.008182445500123078
4.102,0.13627438869519318
4.104,0.17461764913565608
4.106,0.08316208837898051
4.108,0.10012253101159355
4.11,0.058602471418025895
4.112,0.028020990741865252
4.114,-0.06127550165431898
4.116,0.012869491841798496
4.118,0.10066122000167257
4.12,0.0436045625384728
4.122,0.14134462793589486
4.124,0.10405497722871301
4.126,0.0773053889624891
4.128,0.07624992433157549
4.13,-0.026399504463646976
4.132,0.007370814730970739
4.134,-0.0757060406517513
4.136,-0.02282165976054371
4.138,-0.05021111859413719
4.14,-0.005114521124641291
4.142,-0.006861063928184606
4.144,-0.003216480232478414
4.146,0.013209108999670217
4.148,0.03880511055959475
4.15,0.014353796543407134
4.152,0.042708177078771
4.154,0.23733352719413556
4.156,0.30348693936025506
4.158,0.5044785633686968
4.16,0.6647579419246883
4.162,0.8365865717114542
4.164,1.0207571574930059
4.166,1.1275072537767887
4.168,1.0919096183646582
4.17,0.9687087510923731
4.172,0.8284501025107224
4.174,0.5882690572354412
4.176,0.4069382231685655
4.178,0.2553234073454637
4.18,0.13853960409188415
4.182,0.06551341959841056
4.184,0.03144484359474345
4.186,0.031922931336765936
4.188,-0.023680164021510373
4.19,-0.07783333301523844
4.192,-0.1247190051304926
4.194,-0.20332818779022627
4.196,-0.18078244524226575
4.198,-0.1664694426161396
4.2,-0.03676987234573172
4.202,0.011747068281788325
4.204,0.1080818687478816
4.206,0.15234078556119746
4.208,0.16919099864458098
4.21,-0.009668241652357912
4.212,0.04232408485207148
4.214,-0.011934154871944224
4.216,0.09963035891929548
4.218,0.04337445912565001
4.22,0.10820594424681482
4.222,0.1736414661838122
4.224,0.08799945916057896
4.226,0.1482393888533659
4.228,0.058104804007483656
4.23,0.09738027316672318
4.232,0.05243242070931571
4.234,0.009884097917660817
4.236,0.09800601706043284
4.238,0.08543920146693007
4.24,0.1414423204653258
4.242,0.08325001109848996
4.244,0.12674585581881842
4.246,0.12205433148160971
4.248,0.05537991587726902
4.25,0.1273852773273367
4.252,0.08126919998494173
4.2540000000000004,0.06709719847089766
4.256,0.09315608684870222
4.258,0.08195379583244385
4.26,0.06200632952566483
4.2620000000000005,0.08408853215666702
4.264,0.10340478628694798
4.266,0.16089230320172376
4.268,0.17149965556718433
4.2700000000000005,0.0872550292288498
4.272,0.11223601025954677
4.274,-0.002968953341683192
4.276,0.09042222390047383
4.2780000000000005,0.07244349286193155
4.28,0.02734252686972862
4.282,0.1412872214874043
4.284,0.19387126011754918
4.2860000000000005,0.12771105049272097
4.288,0.12266929209743048
4.29,0.10656520314131074
4.292,0.12176537528944345
4.2940000000000005,-0.002364718729297652
4.296,0.060228016335234294
4.298,0.001693793997283255
4.3,0.11561506809968296
4.3020000000000005,0.17773830903990218
4.304,0.17589297411635438
4.306,0.1766287730521559
4.308,0.15510642697193205
4.3100000000000005,0.04541320818624209
4.312,0.05093270652558708
4.314,0.010626861882414226
4.316,0.07487855895269954
4.3180000000000005,0.09613885290818207
4.32,0.1205303218229156
4.322,0.1713738538632607
4.324,0.16082488916691898
4.3260000000000005,0.15397530181888688
4.328,0.11309859511125679
4.33,0.03281160537404555
4.332,0.10916471267052494
4.3340000000000005,0.099819749838406
4.336,0.01615821961501808
4.338,0.13173181715503482
4.34,0.14074331224977918
4.3420000000000005,0.0929807772264638
4.344,0.14186986806702356
4.346,0.14552959461344853
4.348,0.13165759429440108
4.3500000000000005,0.08866371922037067
4.352,0.10777475799990005
4.354,0.07868291228780698
4.356,0.10622702798703947
4.358,0.05849623270781956
4.36,0.09133565833855879
4.362,0.1460695861017295
4.364,0.11992846390685903
4.366,0.16955354615210452
4.368,0.14115003495056314
4.37,0.11910673927259705
4.372,0.10784541046117192
4.374,0.09176151969391844
4.376,0.06646668179787325
4.378,0.011503335018427326
4.38,0.102591354305208
4.382,0.14449391001617362
4.384,0.16360030297940206
4.386,0.1645563526809412
4.388,0.18051197964351035
4.39,0.12050718581998193
4.392,0.11493885065971952
4.394,0.009031827912888334
4.396,0.05462540562169642
4.398,0.080999738334103
4.4,0.1345817023713254
4.402,0.13704295695243637
4.404,0.212081855521018
4.406,0.15521554436078855
4.408,0.17026288550896837
4.41,0.10394077987649394
4.412,0.07574643446202636
4.414,0.06249408142426516
4.416,0.035500036765232224
4.418,0.10434207479751288
4.42,0.16824206769178385
4.422,0.17446046804903032
4.424,0.1416143086724715
4.426,0.19440545374230214
4.428,0.17828137875073957
4.43,0.07707193195913571
4.432,0.07556375442556673
4.434,0.11990843595097136
4.436,0.138485889097091
4.438,0.14018162336068649
4.44,0.11183024961084069
4.442,0.19094184605962128
4.444,0.1809592454790191
4.446,0.1848163475192396
4.448,0.19065269996034942
4.45,0.14956007230920515
4.452,0.16620929936783638
4.454,0.1498259778434636
4.456,0.22222970426095268
4.458,0.16924146858241199
4.46,0.15573813094287392
4.462,0.23511546269257716
4.464,0.22054775424891782
4.466,0.2712573453378895
4.468,0.28033543445015596
4.47,0.2919212430358442
4.472,0.21735590035728145
4.474,0.21355206398083845
4.476,0.2463295566134535
4.478,0.23282503346178468
4.48,0.2679940906489325
4.482,0.28862459886017106
4.484,0.36368042650006793
4.486,0.3996520616529575
4.488,0.4199117221085344
4.49,0.3539691692688161
4.492,0.3246442975948916
4.494,0.28585059546203023
4.496,0.2828775433162836
4.498,0.37974649223495494
4.5,0.3806509965852833
4.502,0.4321558515089225
4.5040000000000004,0.51196490743553
4.506,0.48519306869070833
4.508,0.42719741360310465
4.51,0.4528258231448122
4.5120000000000005,0.38221932425014626
4.514,0.39217264502349064
4.516,0.41094696669544956
4.518,0.41180743874405723
4.5200000000000005,0.521768962449053
4.522,0.5040697015399918
4.524,0.5094394605580553
4.526,0.49536885063416886
4.5280000000000005,0.46819591610429784
4.53,0.43036720066527695
4.532,0.42484572493033756
4.534,0.40007842037426683
4.5360000000000005,0.4603040706052371
4.538,0.44243713967691173
4.54,0.47129014631137933
4.542,0.4139478603559106
4.5440000000000005,0.46336612417801437
4.546,0.4817653492611804
4.548,0.41833926625992046
4.55,0.41746148331120264
4.5520000000000005,0.35184331732030577
4.554,0.36162008855086547
4.556,0.4100801342942662
4.558,0.3244243129931795
4.5600000000000005,0.32150350597366395
4.562,0.34072492188434345
4.564,0.4197992988998613
4.566,0.3153837469865904
4.5680000000000005,0.34987942392296273
4.57,0.36532664258137254
4.572,0.2569993003761085
4.574,0.2969652863896571
4.5760000000000005,0.15775587453815926
4.578,0.22816086728523033
4.58,0.2356965735885673
4.582,0.257851810658378
4.5840000000000005,0.29539527769254853
4.586,0.3113012710557152
4.588,0.26151212499234844
4.59,0.2300420517211757
4.5920000000000005,0.17072540767691657
4.594,0.12285943559261432
4.596,0.12595598225722973
4.598,0.09175231469916591
4.6000000000000005,0.21282584385358785
4.602,0.17368092922897804
4.604,0.26188614231848323
4.606,0.21886655805788965
4.6080000000000005,0.16413936412189667
4.61,0.14428732142069214
4.612,0.06392367606649507
4.614,0.04379477726988065
4.616,0.12506150909665373
4.618,0.09139446603118156
4.62,0.20691608592317004
4.622,0.15178035252144165
4.624,0.2025065327250633
4.626,0.16962482636263632
4.628,0.10662058775762302
4.63,0.09980368424627899
4.632,0.011252417743310913
4.634,0.14314737770023114
4.636,0.049147982680549346
4.638,0.10426441319670164
4.64,0.11726893646566469
4.642,0.1256129161886002
4.644,0.13145253062955944
4.646,0.14023652783711058
4.648,0.09417184390045549
4.65,0.15439574853130883
4.652,0.061154657929891824
4.654,0.10810247024620823
4.656,0.03840850059054009
4.658,0.07937029109522141
4.66,0.08331210654611684
4.662,0.10332716897266946
4.664,0.12794500828367902
4.666,0.12399829089525473
4.668,0.1323456965091831
4.67,0.10806241314271514
4.672,0.09727104259319666
4.674,0.06173077677268701
4.676,0.10242094897352444
4.678,-0.009853762419043087
4.68,0.08807191812405632
4.682,0.11773283004131396
4.684,0.127243017632851
4.686,0.18929493894129074
4.688,0.15578162028714354
4.69,0.09881902136728099
4.692,-0.0031817829903449044
4.694,0.08168948360998368
4.696,-0.0010985040080099331
4.698,0.04529175416163836
4.7,0.07652394087952054
4.702,0.17151330584150182
4.704,0.12987217292131012
4.706,0.17319468061474724
4.708,0.13452662354991482
4.71,0.05716936821108415
4.712,0.06060721140887926
4.714,-0.024758744530614316
4.716,0.028545027539758676
4.718,0.10900679286654794
4.72,0.06909915403005971
4.722,0.1845600782936293
4.724,0.12354988180459217
4.726,0.10865508450443062
4.728,0.09510886398942105
4.73,0.047355148059761876
4.732,0.051361273792670525
4.734,0.04737947296976617
4.736,0.08794291182961819
4.738,0.008565227558824384
4.74,0.15758367827969627
4.742,0.12024570403456865
4.744,0.04745381919193068
4.746,0.14400453809031244
4.748,0.06605264383744366
4.75,0.08352652314345846
4.752,0.09297326430572088
4.7540000000000004,0.02705154137372609
4.756,0.05143439221702204
4.758,0.1028774360445287
4.76,0.025571340114945745
4.7620000000000005,0.024834239271928342
4.764,0.15198321322737807
4.766,0.08354750517163677
4.768,0.15719336351044857
4.7700000000000005,0.09774186640836531
4.772,0.04235799018640812
4.774,0.048237497282261094
4.776,0.014799622516930578
4.7780000000000005,0.024941590162769423
4.78,0.01709684514222365
4.782,0.10288809920439965
4.784,0.11993669226984986
4.7860000000000005,0.17844947924808588
4.788,0.0920281358650752
4.79,0.12039642894652258
4.792,0.04523319345622954
4.7940000000000005,0.04388091187004518
4.796,0.007095214800048374
4.798,0.02646933680010445
4.8,0.12049897525385539
4.8020000000000005,0.12669290072036227
4.804,0.19502099009659282
4.806,0.2011966382566902
4.808,0.1860398466451926
4.8100000000000005,0.08795354713857734
4.812,0.1177117956484939
4.814,0.06552376825127706
4.816,0.13388682492775306
4.8180000000000005,0.21474520433613464
4.82,0.20218052168025807
4.822,0.26881133044235633
4.824,0.34085561232273665
4.8260000000000005,0.27551072178035246
4.828,0.23913795889072328
4.83,0.24398039199206797
4.832,0.2877082770317441
4.8340000000000005,0.1991606150118506
4.836,0.3349581057308566
4.838,0.29717416610939223
4.84,0.2732240033191763
4.8420000000000005,0.3593073885639304
4.844,0.3254052457275427
4.846,0.2683093691171479
4.848,0.35822643902716744
4.8500000000000005,0.23787717068048184
4.852,0.26924082688166895
4.854,0.22526319116255714
4.856,0.20704227351421634
4.8580000000000005,0.22704527182113665
4.86,0.15107915262472624
4.862,0.15862795036598742
4.864,0.15107564692452102
4.866,0.21009212067961694
4.868,0.20351159924891182
4.87,0.17041991187770836
4.872,0.0864468125495666
4.874,0.04754893939484112
4.876,0.07528133864579431
4.878,-0.017115239080065354
4.88,0.07396307666709914
4.882,0.08496148623975842
4.884,0.11398945683264772
4.886,0.13813305257307112
4.888,0.08742585276665812
4.89,0.08236287721998777
4.892,0.010631473348810079
4.894,-0.04854809024940486
4.896,-0.037741003831630204
4.898,0.017024135600967855
4.9,0.00718534343520745
4.902,0.07813779432916201
4.904,0.14424900115753364
4.906,0.11018985924247718
4.908,0.04837588119990702
4.91,0.019759344371751513
4.912,-0.041714869872521564
4.914,-0.04455044749973891
4.916,-0.004316538813996986
4.918,-0.04162014545855002
4.92,0.07984782238148214
4.922,0.05787421974340258
4.924,0.1351412137415312
4.926,0.09795591264760128
4.928,-0.03312346411489366
4.93,0.011608037226254333
4.932,0.003768615530590526
4.934,-0.0683674489652602
4.936,0.04947303017933376
4.938,-0.016221989603981392
4.94,0.07164707426794205
4.942,0.026971043108195845
4.944,0.05027163836220128
4.946,0.03715563527031012
4.948,0.013931939048526479
4.95,0.029597987238079295
4.952,0.020057625816860478
4.954,0.012127614677713422
4.956,-0.02871638561994905
4.958,-0.026539562882472667
4.96,0.012641682636720742
4.962,-0.03139303447457554
4.964,-0.014829938926879355
4.966,0.005957577812821434
4.968,-0.018219683623795634
4.97,-0.06541539787760434
4.972,-0.11871038312270284
4.974,-0.10466353971930546
4.976,-0.13197193275162963
4.978,-0.16711213919520831
4.98,-0.07132393470447676
4.982,-0.00886866148394001
4.984,0.009165429704000784
4.986,0.1083720160919722
4.988,0.2413698149831243
4.99,0.31302720861435135
4.992,0.4463045568460525
4.994,0.5768507432287853
4.996,0.83380804142646
4.998,0.8694608580052253
5.0,1.072749939633787
5.002,0.9229398658374395
5.0040000000000004,0.9511248361977102
5.006,0.7222374821851696
5.008,0.469367922556377
5.01,0.3415629080909465
5.0120000000000005,0.13388238453614018
5.014,-0.059867502497882585
5.016,-0.1709482826480257
5.018,-0.10321685458092351
5.0200000000000005,-0.10306383487162427
5.022,-0.14519931538670752
5.024,-0.12517546396049278
5.026,-0.15512134720524018
5.0280000000000005,-0.22664843111588254
5.03,-0.22697178908732726
5.032,-0.22059626044707237
5.034,-0.17445384184855087
5.0360000000000005,-0.14888120780900466
5.038,-0.09001723835931763
5.04,0.039841234802597984
5.042,0.025014530737651648
5.0440000000000005,0.029065123122154132
5.046,-0.009827051531584799
5.048,-0.013388173672727183
5.05,-0.0009887382849451294
5.0520000000000005,-0.008036202925824208
5.054,-0.09566788749841276
5.056,-0.014605587159331954
5.058,-0.05273950004643955
5.0600000000000005,-0.026929599397767776
5.062,-0.03280343264376405
5.064,0.01136027876261361
5.066,0.011340647690014449
5.0680000000000005,0.005032052227174559
5.07,0.009606006403381924
5.072,-0.019190296142754477
5.074,-0.07564919925624293
5.0760000000000005,-0.10114107777390743
5.078,-0.07695748709022092
5.08,-0.06161700647484408
5.082,0.010174755654388183
5.0840000000000005,0.014803985096200562
5.086,0.016418346588816767
5.088,0.0563193263810034
5.09,-0.0015142031656394349
5.0920000000000005,-0.05093873580086095
5.094,-0.10932173921751961
5.096,-0.10869762525236829
5.098,-0.06842057821726016
5.1000000000000005,-0.06490080647356984
5.102,0.041732609108853166
5.104,-0.005899183954539061
5.106,0.07937764824532921
5.1080000000000005,0.013169104960085557
5.11,-0.09089934984240405
5.112,-0.0689710043931258
5.114,-0.1737280252542119
5.1160000000000005,-0.05585455112204087
5.118,-0.025038241739290083
5.12,-0.04876803984347762
5.122,0.043712920049979155
5.124,-0.010223911241856003
5.126,0.0032362239015799547
5.128,-0.045485363193024465
5.13,-0.041115315423735976
5.132,-0.12511138022968227
5.134,-0.09632061802558589
5.136,-0.06320858039170626
5.138,-0.03334665541428406
5.14,-0.03873244338723922
5.142,-0.03434305504381987
5.144,-0.019384729273120325
5.146,0.015280583329697846
5.148,-0.07882589980652371
5.15,-0.05278956914365196
5.152,-0.050255101755697563
5.154,-0.05091561434288376
5.156,-0.09673412892070088
5.158,-0.04884765669148598
5.16,-0.06769456411690696
5.162,-0.09189582923684833
5.164,-0.005571878402564474
5.166,-0.046761708771871746
5.168,0.025167443587459752
5.17,-0.07176546622207126
5.172,-0.07135693759980197
5.174,-0.11937100566730002
5.176,-0.07698894824874333
5.178,-0.062185406389797346
5.18,-0.1117764623240839
5.182,-0.033853423806269045
5.184,-0.05240284670592956
5.186,0.06114940159796423
5.188,-0.01878548393065081
5.19,-0.02028746458445518
5.192,-0.12395052000527051
5.194,-0.15947096183450943
5.196,-0.17726745996676915
5.198,-0.018847261857040873
5.2,-0.10311126138070087
5.202,0.020417968902982232
5.204,0.004451760315190678
5.206,-0.02169756454417786
5.208,-0.004349126907684141
5.21,-0.12552863976638515
5.212,-0.06549848143543963
5.214,-0.20933787917251245
5.216,-0.09169825955631278
5.218,-0.11437057884127988
5.22,-0.02911703233670223
5.222,0.0005696267335101469
5.224,-0.038641564804797454
5.226,-0.01881222770507219
5.228,-0.08067302936129139
5.23,-0.08217907402604889
5.232,-0.1060844513024117
5.234,-0.08830915836105908
5.236,-0.12522272119550182
5.238,-0.06122348501190648
5.24,-0.09140235438396221
5.242,-0.05045858703249752
5.244,-0.06378589067503455
5.246,-0.02981573097369728
5.248,-0.04225525329272743
5.25,-0.08982084027264983
5.252,-0.07056885886750122
5.2540000000000004,-0.06807729314281857
5.256,-0.1153888053683792
5.258,-0.07959983606062193
5.26,-0.10863229899729068
5.2620000000000005,-0.02766586140641253
5.264,-0.07054773590047857
5.266,0.0001731330266869606
5.268,-0.05144166840917185
5.2700000000000005,-0.01505080271797897
5.272,-0.046096571247323304
5.274,-0.0760267006116061
5.276,-0.10937777107982669
5.2780000000000005,-0.05146441167114668
5.28,-0.09628910481094058
5.282,-0.05306129180500021
5.284,0.09134735454629522
5.2860000000000005,-0.01003138941742733
5.288,0.046798040180985746
5.29,-0.0015422454160369768
5.292,-0.046019560812242115
5.2940000000000005,-0.06918080703000179
5.296,-0.004684741504865128
5.298,-0.10872364436109636
5.3,0.04756706988853634
5.3020000000000005,0.0862627303869652
5.304,0.13976148848476
5.306,0.09642111779384259
5.308,0.08248829409840941
5.3100000000000005,0.06553455075069936
5.312,0.005788037601185774
5.314,0.04690569431573264
5.316,-0.003249856501639156
5.3180000000000005,0.1459087816054558
5.32,0.13325127683022597
5.322,0.2082401064764472
5.324,0.16968245309829755
5.3260000000000005,0.1597480195706307
5.328,0.18882160293164835
5.33,0.11931418699014495
5.332,0.14580875707432203
5.3340000000000005,0.1435995380409254
5.336,0.12635544417129707
5.338,0.2234886161305361
5.34,0.2502223962984009
5.3420000000000005,0.24966749862732604
5.344,0.2778505362444835
5.346,0.19958514747942235
5.348,0.25389064345215534
5.3500000000000005,0.20500476848115473
5.352,0.2750814466597013
5.354,0.21227297968413275
5.356,0.22382741492003544
5.3580000000000005,0.22241052080385926
5.36,0.2403233577815653
5.362,0.24259299414117122
5.364,0.24007584866330797
5.3660000000000005,0.30155420367479085
5.368,0.29560684699431095
5.37,0.26157055576345956
5.372,0.19653992111871804
5.3740000000000006,0.2468859599008263
5.376,0.13645097966890407
5.378,0.14501320611882174
5.38,0.189105924787282
5.382,0.2247512374628923
5.384,0.247473700260882
5.386,0.21860734564334347
5.388,0.24113038251510366
5.39,0.14872273047090434
5.392,0.13707023476184818
5.394,0.0947626510482683
5.396,0.03920358712923323
5.398,0.0511042571956615
5.4,0.13367426456987525
5.402,0.10607325287365313
5.404,0.16057600678609726
5.406,0.1559685714224153
5.408,0.129179171274607
5.41,0.006238016872975441
5.412,-0.029417648848962412
5.414,-0.057918201255332605
5.416,-0.02323281598430623
5.418,-0.02858947962019168
5.42,0.07298348932482457
5.422,0.04049711471015732
5.424,0.03147906922312574
5.426,0.015522434978604583
5.428,-0.017428876799891788
5.43,-0.032410076926817515
5.432,-0.1135630774306901
5.434,-0.08259527967847785
5.436,-0.06316972912934421
5.438,-0.09087049904310704
5.44,-0.05853051700961949
5.442,-0.02800615663619282
5.444,-0.018293591257032633
5.446,-0.11472031586887659
5.448,-0.050773968644013824
5.45,-0.08665275699687087
5.452,-0.12104640415448016
5.454,-0.05434486582094621
5.456,-0.13290624258694703
5.458,-0.12605805627180308
5.46,-0.07077042448016765
5.462,-0.14632326153741582
5.464,-0.09633145574716777
5.466,-0.006548586506375659
5.468,-0.10146157991197075
5.47,-0.07107780747288023
5.472,-0.11017031317999368
5.474,-0.15869111839877512
5.476,-0.15968391071458432
5.478,-0.16651217665438045
5.48,-0.11540446166290386
5.482,-0.09776289428302089
5.484,-0.05340597951602867
5.486,-0.04663433377750478
5.488,-0.07368831823920871
5.49,-0.11178511968148895
5.492,-0.1475069760053912
5.494,-0.18630537316227944
5.496,-0.18969451857099723
5.498,-0.10065621403634317
5.5,-0.11960601074434693
5.502,-0.10088768358140289
5.5040000000000004,-0.03485349652749223
5.506,-0.04755329781023744
5.508,-0.06976456610465175
5.51,-0.1370496290558877
5.5120000000000005,-0.201175664538426
5.514,-0.17900070553927047
5.516,-0.18095038831126303
5.518,-0.08262841308531522
5.5200000000000005,-0.11953356608365276
5.522,-0.060534861885192776
5.524,-0.09796626476365652
5.526,-0.02347822183543779
5.5280000000000005,-0.14001510246326015
5.53,-0.16861418280956456
5.532,-0.12613256248186183
5.534,-0.16295699211030987
5.5360000000000005,-0.12635591588671086
5.538,-0.10269063887909233
5.54,-0.10221695288412089
5.542,-0.09045294557632662
5.5440000000000005,-0.0911332746785014
5.546,-0.1239580002821805
5.548,-0.073756648126401
5.55,-0.09780177452840713
5.5520000000000005,-0.17909557968751433
5.554,-0.13747237617377375
5.556,-0.11485498515478589
5.558,-0.13177837713021637
5.5600000000000005,-0.13597298515369516
5.562,-0.10951452770466777
5.564,-0.09622675650434509
5.566,-0.07133504110682483
5.5680000000000005,-0.08206643219825839
5.57,-0.08603604568597087
5.572,-0.10726539689096637
5.574,-0.16752964720785693
5.5760000000000005,-0.16651457158005817
5.578,-0.1609984437071459
5.58,-0.1399209639580274
5.582,-0.08666418890353483
5.5840000000000005,-0.07495646598558925
5.586,-0.058717231215361765
5.588,-0.02370182845923772
5.59,-0.12803999195805307
5.5920000000000005,-0.14838283487196835
5.594,-0.16640477391063097
5.596,-0.19469517140276058
5.598,-0.1704350995622546
5.6000000000000005,-0.10828591382975333
5.602,-0.06647961514862051
5.604,-0.07284575546285105
5.606,0.004300686352843856
5.6080000000000005,-0.10089423395867486
5.61,-0.14350268696999458
5.612,-0.14683104562560076
5.614,-0.19396920403384094
5.6160000000000005,-0.17376987615070952
5.618,-0.10441005700373515
5.62,-0.08322166008869594
5.622,-0.03867910427191292
5.6240000000000006,-0.04275719684306169
5.626,-0.09192545156265194
5.628,-0.07009822923646448
5.63,-0.10409772278057472
5.632,-0.1134909015446464
5.634,-0.1304474275814834
5.636,-0.08643508130999923
5.638,-0.03308249724722093
5.64,-0.07467691207376154
5.642,0.02356228182026924
5.644,0.020801485202143737
5.646,0.014300126387098405
5.648,-0.05217662200510752
5.65,0.07234615133278566
5.652,0.014144087436997868
5.654,-0.010578024961834947
5.656,0.06300662617200573
5.658,0.027351034468180026
5.66,0.08069183477850797
5.662,0.08743557276136443
5.664,0.15573190406394583
5.666,0.23001358353551457
5.668,0.16164554636796644
5.67,0.13958601484364158
5.672,0.1822800731693986
5.674,0.09259401302551716
5.676,0.07681242853965446
5.678,0.07681227768847325
5.68,0.07299735004370057
5.682,0.16123404723497028
5.684,0.19495205726893872
5.686,0.1406505840825447
5.688,0.16908582048644905
5.69,0.05325659913753106
5.692,0.03456141914501933
5.694,-0.002755280431365449
5.696,-0.0779913802020577
5.698,-0.01312389647500159
5.7,-0.014159724168222356
5.702,0.00752933662374872
5.704,0.07595739360714092
5.706,0.08671210652797401
5.708,-0.04513133242778994
5.71,-0.07153573025971362
5.712,-0.11056039508197991
5.714,-0.12641421013719564
5.716,-0.19242851713666187
5.718,-0.05753577753362374
5.72,-0.08465301836002152
5.722,-0.03640417450936709
5.724,0.018378611483725008
5.726,-0.07940739455773427
5.728,-0.0905747240248503
5.73,-0.10319558309655875
5.732,-0.15647450589696305
5.734,-0.06474454159435761
5.736,-0.19001228794090363
5.738,-0.08146912187222174
5.74,-0.07432224077514274
5.742,-0.07417273303953756
5.744,-0.09912303405153566
5.746,-0.035224239333922
5.748,-0.08147481989610408
5.75,-0.1018274909357663
5.752,-0.08883817783450175
5.7540000000000004,-0.09279894329205843
5.756,-0.13412601597508178
5.758,-0.15173259894325192
5.76,-0.11442199850393471
5.7620000000000005,-0.05773501196058347
5.764,-0.07842712995505002
5.766,-0.05177869510344288
5.768,-0.014682341250531389
5.7700000000000005,-0.11328800178804738
5.772,-0.04655128848857108
5.774,-0.15199814058067804
5.776,-0.12442555416857809
5.7780000000000005,-0.1388398314680509
5.78,-0.11595302024180486
5.782,-0.07734798790074046
5.784,-0.033414829073650065
5.7860000000000005,-0.02819239551830371
5.788,-0.0431962038212578
5.79,-0.037815121739632945
5.792,-0.1419327286866403
5.7940000000000005,-0.1014693188642912
5.796,-0.2592248550530353
5.798,-0.16843471161314663
5.8,-0.14118607981430978
5.8020000000000005,-0.1225126063466774
5.804,-0.09897293751761509
5.806,-0.08164594665330034
5.808,-0.14578761871605833
5.8100000000000005,-0.22779620286060157
5.812,-0.2328016391930629
5.814,-0.1947154567595433
5.816,-0.17384158959452578
5.8180000000000005,-0.13088512633350016
5.82,-0.0036000946031083322
5.822,0.18702970999121155
5.824,0.32120831957809287
5.8260000000000005,0.5292689028282418
5.828,0.6695780388876265
5.83,0.7548155050824211
5.832,0.8906235657990372
5.8340000000000005,0.886033279776508
5.836,0.8160209399610256
5.838,0.6547699614001627
5.84,0.5808746612290999
5.8420000000000005,0.39283510866846044
5.844,0.23775848972157437
5.846,0.09494232909171814
5.848,-0.11994721396661275
5.8500000000000005,-0.10867352834368037
5.852,-0.2072299426842212
5.854,-0.24405995848527826
5.856,-0.257231761218085
5.8580000000000005,-0.29100656244537726
5.86,-0.2948715256806291
5.862,-0.3204478534284702
5.864,-0.15112728254532112
5.8660000000000005,-0.17984028240965053
5.868,-0.13333505561295392
5.87,-0.15537904546845
5.872,-0.030202137493602232
5.8740000000000006,-0.14158586617671917
5.876,-0.13435649763596674
5.878,-0.10709220870284793
5.88,-0.12299576067706842
5.882000000000001,-0.010974604544174087
5.884,0.0015991023510504646
5.886,-0.017128677374825714
5.888,0.019328962788683332
5.89,-0.0682677927351017
5.892,-0.07456591958243841
5.894,-0.1502558206432416
5.896,-0.11915308518730855
5.898,-0.07433761654890045
5.9,-0.11864349244109935
5.902,0.0015363196418773702
5.904,0.05090883788794554
5.906,0.005007957642951482
5.908,-0.016817098689390755
5.91,-0.10400246817567832
5.912,-0.09179536112869449
5.914,-0.12790048927578965
5.916,-0.09103830170884791
5.918,-0.09532684922222177
5.92,-0.0416859540878845
5.922,0.08765790309564774
5.924,-0.06143517886544821
5.926,-0.029122938979800138
5.928,0.022337654859957493
5.93,-0.15266794706902775
5.932,-0.03404074183714775
5.934,-0.12813154083544465
5.936,-0.0363362583350477
5.938,-0.040992034792233026
5.94,-0.04393852098273669
5.942,-0.04335431151928396
5.944,0.005001402866935917
5.946,-0.05025417910223655
5.948,-0.038422712300291845
5.95,0.011055929849177804
5.952,-0.1132842913862396
5.954,-0.021471027660076344
5.956,-0.06222837363324958
5.958,-0.11119080549332344
5.96,-0.010384039426221958
5.962,-0.08789552489991778
5.964,-0.016987869564007455
5.966,0.024139928442286965
5.968,-0.018609084701291075
5.97,0.02847128972690012
5.972,-0.06160387869162373
5.974,-0.06973158745747872
5.976,-0.0859206970260333
5.978,-0.11899864657787715
5.98,-0.03746287552907459
5.982,-0.03830125655959449
5.984,-0.019297110327778755
5.986,0.08815288181419634
5.988,0.033956767847243045
5.99,-0.06865924245589687
5.992,-0.02133990410843805
5.994,-0.11668764702529769
5.996,-0.09642413666906222
5.998,-0.08855474266256798
6.0,-0.009023624992005066
6.002,0.009185390050251933
6.0040000000000004,0.08440796700061237
6.006,0.02515871314710498
6.008,-0.008590416756918068
6.01,-0.07973895464135389
6.0120000000000005,-0.05217381110237958
6.014,-0.07311393988498122
6.016,-0.100146297636001
6.018,-0.06911942822165441
6.0200000000000005,0.0656969686991714
6.022,-0.02772270819395116
6.024,0.07558436095608546
6.026,-0.019900724802815142
6.0280000000000005,0.0190891305618772
6.03,-0.03009973922871324
6.032,-0.08195064857760936
6.034,-0.0715787735418394
6.0360000000000005,-0.053392725464691954
6.038,0.01211777564152421
6.04,-0.017483087210258333
6.042,0.004598905981070455
6.0440000000000005,-0.018986508564457
6.046,0.023149294340483087
6.048,0.018789761556247373
6.05,-0.07071892218804832
6.0520000000000005,0.012928194033546982
6.054,-0.037493877319836125
6.056,-0.023547032134613406
6.058,-0.07389781689208974
6.0600000000000005,-0.019612898844013498
6.062,0.012098571172531216
6.064,0.043182783347006246
6.066,0.04640150106697294
6.0680000000000005,-0.015017243453260838
6.07,0.05006027953637672
6.072,-0.002840804362287534
6.074,-0.047302067318514315
6.0760000000000005,-0.07899950837678643
6.078,-0.03860751251193273
6.08,-0.03163191879892312
6.082,0.022926489393745565
6.0840000000000005,0.04222439685304126
6.086,0.10418850186129955
6.088,0.05438036110915457
6.09,-0.014348107864318081
6.0920000000000005,0.005545787966220898
6.094,-0.06847568588032193
6.096,-0.05863579269903955
6.098,-0.02922865828026173
6.1000000000000005,0.007992506570559716
6.102,0.09638287779634366
6.104,0.08031958813440103
6.106,0.07990111722784418
6.1080000000000005,0.13621415897327738
6.11,-0.005746216634367557
6.112,-0.03529178635803172
6.114,0.015535452383775142
6.1160000000000005,0.010139167944951552
6.118,0.03721832761282515
6.12,0.11206788963970372
6.122,0.1309064129307812
6.1240000000000006,0.1331807161610261
6.126,0.09516093063218306
6.128,0.14702731073856318
6.13,0.06340070330509624
6.132000000000001,0.05109335855370722
6.134,0.1054675481577938
6.136,0.09957977526799898
6.138,0.15924793909847798
6.140000000000001,0.1460408132182524
6.142,0.2213675048811466
6.144,0.21461590547148118
6.146,0.1661675870523593
6.148,0.1895362370734246
6.15,0.24618463665862272
6.152,0.2082675952607562
6.154,0.19867281420953914
6.156,0.2241557642755234
6.158,0.21839766333440883
6.16,0.22448010571345844
6.162,0.3076125821567288
6.164,0.3003061757988795
6.166,0.31714630600621263
6.168,0.32076302903391735
6.17,0.3866930707815234
6.172,0.29019882632499633
6.174,0.32447021119997393
6.176,0.2535016128332659
6.178,0.2847934164783206
6.18,0.3031259124879249
6.182,0.42193192068560553
6.184,0.4021817377696124
6.186,0.42393280785347714
6.188,0.4371234551011865
6.19,0.3929201390669108
6.192,0.34025998505508986
6.194,0.29596017675332514
6.196,0.28875666137712175
6.198,0.3000630949401004
6.2,0.3781975118296591
6.202,0.4629926306028647
6.204,0.36166371743519676
6.206,0.47793560555359593
6.208,0.42381189131200997
6.21,0.26010202271537225
6.212,0.30667217626830323
6.214,0.2766929701881686
6.216,0.2860826530237743
6.218,0.3190367538937885
6.22,0.31433819364240057
6.222,0.34675103706776317
6.224,0.3747347867159999
6.226,0.2765547695782752
6.228,0.2670773275680303
6.23,0.24001315063040488
6.232,0.23394887369247042
6.234,0.17940331206177995
6.236,0.2240233093191223
6.238,0.23075004296518753
6.24,0.27508354731967055
6.242,0.13437494000095426
6.244,0.23611730833603245
6.246,0.19435727083593735
6.248,0.1848679453981353
6.25,0.13939209841416106
6.252,0.21118908709587447
6.2540000000000004,0.08982777165692643
6.256,0.08029505366452772
6.258,0.17640519014269718
6.26,0.08346292116649454
6.2620000000000005,0.162182057015184
6.264,0.0877046540252398
6.266,0.1582492210212416
6.268,0.1233463338104678
6.2700000000000005,0.12455869984054306
6.272,0.08707397588775133
6.274,0.05323378985827504
6.276,0.03112448787370809
6.2780000000000005,0.03280179335536742
6.28,0.061213100084653
6.282,0.05295641447581965
6.284,0.11408840941021828
6.2860000000000005,0.13388292143263436
6.288,0.17979827904609813
6.29,0.037223419658017246
6.292,0.009600123020272765
6.2940000000000005,-0.0047606734678242255
6.296,0.010530620740021798
6.298,0.009798713283995446
6.3,-0.012374239110732495
6.3020000000000005,0.16585483949193391
6.304,0.09105048159668379
6.306,0.13188835564499868
6.308,0.09622574130020949
6.3100000000000005,0.0044039472327407556
6.312,-0.008506988072316982
6.314,-0.011124539685978648
6.316,0.03426154649353384
6.3180000000000005,-0.02358015694171204
6.32,0.07467124099929189
6.322,0.14580801765592893
6.324,0.1143447926002984
6.3260000000000005,0.06939473369693105
6.328,0.08180277329316904
6.33,0.029277472880810645
6.332,-0.005793600711757135
6.3340000000000005,0.023963726291550403
6.336,-0.013050607704920711
6.338,0.05724358659242795
6.34,0.06330531326658455
6.3420000000000005,0.11061240281799682
6.344,0.05218767321473595
6.346,0.034391571729858204
6.348,0.09608887782913714
6.3500000000000005,0.06872186848900885
6.352,0.019344093932096327
6.354,0.022726217261764527
6.356,0.038345548316136624
6.3580000000000005,0.00590440124553096
6.36,0.041453817244722926
6.362,0.06823721501286521
6.364,0.07169422221502876
6.3660000000000005,0.10293721181106905
6.368,0.11826780173063228
6.37,0.06644248640799554
6.372,0.0828439226745042
6.3740000000000006,-0.006730592539002586
6.376,-0.005962506616001726
6.378,-0.03151699385761284
6.38,0.03981959333446086
6.382000000000001,0.07979375576195712
6.384,0.099422947501628
6.386,0.18357960096532075
6.388,0.050722276679172465
6.390000000000001,0.09244632989595397
6.392,-0.0016402364798652654
6.394,0.0152707627905279
6.396,-0.06509779251491633
6.398000000000001,-0.006531204445007523
6.4,0.07766890171958596
6.402,0.14058994109928696
6.404,0.15148709551997613
6.406,0.1077491716368319
6.408,0.058408818897213395
6.41,0.03188117468221777
6.412,0.03730925832193155
6.414,-0.01756875247210178
6.416,0.009039996814548085
6.418,0.04923110273193185
6.42,0.0981584115766969
6.422,0.06194673341965695
6.424,0.15369790988726126
6.426,0.09315670392338116
6.428,0.04246519145197607
6.43,0.028975862213857687
6.432,0.04583726020930429
6.434,-0.007412330475757064
6.436,0.031876058239790304
6.438,0.07502118370182356
6.44,0.060341643849701684
6.442,0.08859037668919205
6.444,0.09057816540266585
6.446,0.09702486590514488
6.448,0.05258665265158227
6.45,0.08084641973913065
6.452,0.04906317186130278
6.454,0.08792909408138219
6.456,0.018929392093673093
6.458,0.0696427022160725
6.46,0.021570279139087822
6.462,0.10561923476052684
6.464,0.09695431404856703
6.466,0.1432862790070872
6.468,0.12274309916965878
6.47,0.12104062059188817
6.472,0.12178744644240318
6.474,0.09223565463325427
6.476,0.08177492690353844
6.478,0.12424297796165999
6.48,0.10403774334028099
6.482,0.17784946750106223
6.484,0.2397813462433948
6.486,0.3040004296277736
6.488,0.27373368412370513
6.49,0.2199888785634352
6.492,0.24115259673186218
6.494,0.17250892615388755
6.496,0.2505462574336522
6.498,0.20546624863870655
6.5,0.3024766196045311
6.502,0.3372267977160843
6.5040000000000004,0.38060817424190746
6.506,0.4131415569009174
6.508,0.32741516843251556
6.51,0.2854535428207557
6.5120000000000005,0.24657039647400178
6.514,0.19346829971255847
6.516,0.21364975310833625
6.518,0.2887406386883088
6.5200000000000005,0.30900473260097694
6.522,0.3009798346859554
6.524,0.2853175509298825
6.526,0.2282053519311344
6.5280000000000005,0.25690222567367205
6.53,0.12372403345684038
6.532,0.10786433963026643
6.534,0.0925075482786169
6.5360000000000005,0.15364749803233502
6.538,0.13905452507077418
6.54,0.11245325512810592
6.542,0.13168288837928313
6.5440000000000005,0.16195681718413557
6.546,0.09918088477057073
6.548,0.118175625803249
6.55,0.037588864782812176
6.5520000000000005,0.10011099372841029
6.554,0.02444021986214438
6.556,0.059783932419441355
6.558,0.04997055714756403
6.5600000000000005,0.058829041282489954
6.562,0.04478234748520135
6.564,0.05862892394544196
6.566,0.09599137018194724
6.5680000000000005,0.1572357988171899
6.57,0.055075436833768095
6.572,0.0282353893458035
6.574,0.08114376724196638
6.5760000000000005,-0.02837201112429761
6.578,0.022397442592273515
6.58,-0.03183283451065325
6.582,0.09254856081388105
6.5840000000000005,0.0895014033835386
6.586,0.11530389232315702
6.588,0.1181247744175068
6.59,0.11566690684515106
6.5920000000000005,0.016929341708599423
6.594,-0.0756610379680056
6.596,0.031565133152239966
6.598,-0.010039044136999704
6.6000000000000005,0.06676795338791067
6.602,0.11596511263887778
6.604,0.1357391699497309
6.606,0.08426997955353918
6.6080000000000005,0.11343972352002485
6.61,0.018398012705928453
6.612,-0.01037154275776017
6.614,0.008570971189639159
6.6160000000000005,-0.02638020764980785
6.618,0.06576159231812403
6.62,0.04831829628112044
6.622,0.121487911839302
6.6240000000000006,0.10280117328974706
6.626,0.07915176982815395
6.628,0.035783424354492624
6.63,-0.045498213133012826
6.632000000000001,-0.0068585936217392465
6.634,-0.09968463460155949
6.636,-0.09895021859463826
6.638,-0.016511138113851673
6.640000000000001,-0.011485542114346544
6.642,-0.025352149407709374
6.644,-0.02973995306217212
6.646,-0.023106989443036477
6.648000000000001,-0.009557047399080363
6.65,0.020682371879480722
6.652,-0.015172611908108907
6.654,0.21391044443826243
6.656000000000001,0.30486381788925593
6.658,0.4367974533733912
6.66,0.63562210996678
6.662,0.8460063052980905
6.664,1.0396942602733381
6.666,1.0482517474019024
6.668,1.0577949697392754
6.67,0.9727845960778201
6.672,0.732632772970115
6.674,0.5380558726852882
6.676,0.38820590510618785
6.678,0.20618509563464776
6.68,0.11419443741169472
6.682,0.04371895865444269
6.684,0.00863479682653315
6.686,-0.038473454415181754
6.688,-0.03287684056962457
6.69,-0.12423101475053161
6.692,-0.2056938479175844
6.694,-0.2305931938383255
6.696,-0.2101536447521021
6.698,-0.18218678526119475
6.7,-0.1264565221565201
6.702,-0.018965246857258
6.704,0.06853550508567523
6.706,0.05590274024765848
6.708,0.11072811537769214
6.71,0.0016392105821015357
6.712,-0.05392416645884195
6.714,-0.02174991242523268
6.716,-0.025923103179155298
6.718,0.053306472992648096
6.72,0.05063834739601388
6.722,0.05973408515820307
6.724,0.09332370405538556
6.726,0.09515141304317307
6.728,0.005425044423296662
6.73,0.012778749076287794
6.732,-0.026331250099429684
6.734,-0.02075696996024894
6.736,0.02542146007083258
6.738,0.058764461158561
6.74,0.031550519844716636
6.742,0.027240940873856857
6.744,0.06964870612505147
6.746,0.05721484424221712
6.748,0.008915528307478784
6.75,0.04460755961786716
6.752,0.03326793366529237
6.7540000000000004,-0.002812624094832076
6.756,-0.031252361510316296
6.758,0.04115131518906927
6.76,-0.0010848597764314075
6.7620000000000005,0.011145973504482726
6.764,0.04009784422463098
6.766,0.0712995208647002
6.768,0.07241353637875338
6.7700000000000005,0.06305480107467035
6.772,0.024864140084263665
6.774,-0.040807188192545
6.776,-0.04413366381550517
6.7780000000000005,-0.04460447697147963
6.78,0.017534432878993467
6.782,0.031618069555682984
6.784,0.012063804925348955
6.7860000000000005,0.12815491907942325
6.788,0.08753219751907258
6.79,0.04584530893443686
6.792,-0.0309007316901212
6.7940000000000005,-0.05787754174284423
6.796,-0.048853121147699206
6.798,-0.1170641113071457
6.8,0.0815687010185757
6.8020000000000005,0.043467764135579214
6.804,0.0995300892679925
6.806,0.0930261424916081
6.808,0.06470692818160104
6.8100000000000005,-0.02962666175510846
6.812,-0.08567092208593297
6.814,-0.04341828140963825
6.816,-0.03352368225428376
6.8180000000000005,-0.015489203893324546
6.82,0.05664698794527405
6.822,0.06519281390301966
6.824,0.032552153750032696
6.8260000000000005,0.05908531589566328
6.828,0.05434478483681786
6.83,-0.07622945227874015
6.832,-0.028613165045926543
6.8340000000000005,-0.03443532606001396
6.836,-0.028718262314232447
6.838,-0.0068410650194813075
6.84,0.043328123876114476
6.8420000000000005,0.04328181525771578
6.844,-0.006878930744692254
6.846,0.05099745687089465
6.848,0.005778086359817516
6.8500000000000005,-0.01569726828121095
6.852,0.00844446204855621
6.854,-0.012396969763170125
6.856,-0.03520467492248992
6.8580000000000005,-0.06426479965871455
6.86,-0.005598087399084371
6.862,-0.013398703562735034
6.864,0.07479671607306614
6.8660000000000005,-0.003836075502896219
6.868,0.028061310291143532
6.87,0.03227291053872791
6.872,0.006159386358828478
6.8740000000000006,-0.04282799283507172
6.876,-0.05683620199180425
6.878,-0.13782000160011165
6.88,0.006471010131823544
6.882000000000001,0.027381571189454067
6.884,-0.015103959462692197
6.886,0.09357872588019893
6.888,0.0533829543282529
6.890000000000001,-0.04594741303069198
6.892,-0.0072660809777635935
6.894,-0.06961620589243862
6.896,-0.12069882688201536
6.898000000000001,-0.0015318615483040365
6.9,-0.047639029107778084
6.902,0.00935936417267716
6.904,0.08272649230551124
6.906000000000001,0.08084249252994025
6.908,0.0006123673879728682
6.91,-0.006570655402280731
6.912,-0.0527062891753302
6.914,-0.0900077341518884
6.916,-0.09708896804453965
6.918,-0.04586479627991391
6.92,0.020309304439320837
6.922,0.032741138962313836
6.924,0.08241528529201975
6.926,0.015149521858839717
6.928,-0.004360903251168481
6.93,-0.035108692356932585
6.932,-0.03560857133559782
6.934,-0.02680260642471873
6.936,-0.020176443037217856
6.938,-0.0020524614789242043
6.94,-0.02217388253927471
6.942,0.06868622353203505
6.944,0.028373093670450215
6.946,0.02644690159654273
6.948,0.012206164754779661
6.95,0.03700883610498383
6.952,0.022726952103716787
6.954,0.010729930916673984
6.956,0.05141609264933876
6.958,-0.021520134830423008
6.96,0.03791815068734911
6.962,0.07371140591684781
6.964,0.08080156113682255
6.966,0.13429040816360444
6.968,0.12464921162945114
6.97,0.10433833957988124
6.972,0.07933427504018989
6.974,0.06901570572333576
6.976,0.07959675337560704
6.978,0.08852026690360609
6.98,0.06803686642072221
6.982,0.1905004603244332
6.984,0.21914560340811653
6.986,0.23807556362581167
6.988,0.23558823153007213
6.99,0.14205311312046573
6.992,0.17320855816812264
6.994,0.16382332252179221
6.996,0.16284338724012992
6.998,0.17444204188278417
7.0,0.1907907919546954
7.002,0.30795512770243466
7.0040000000000004,0.35741131467282666
7.006,0.31889036469062854
7.008,0.3003100245393801
7.01,0.19997597943539097
7.0120000000000005,0.20942929147877998
7.014,0.21553504276802074
7.016,0.23633294354064566
7.018,0.2958267934284192
7.0200000000000005,0.3107698182319926
7.022,0.3382236933184958
7.024,0.3799543699673373
7.026,0.33271725486569065
7.0280000000000005,0.28540554423823394
7.03,0.2959469338264768
7.032,0.2356622521758483
7.034,0.24165928358757305
7.0360000000000005,0.2508140712663185
7.038,0.23461480016000766
7.04,0.335948111997653
7.042,0.3196897548251765
7.0440000000000005,0.22750664022708367
7.046,0.29880369907598214
7.048,0.22647717131287134
7.05,0.21166008040697082
7.0520000000000005,0.2575393688214118
7.054,0.18078166447426952
7.056,0.15908726653222388
7.058,0.14527221457813705
7.0600000000000005,0.1799664763173921
7.062,0.19604828217673143
7.064,0.18311108545430335
7.066,0.17697254597705864
7.0680000000000005,0.16570070835244902
7.07,0.14628839787233086
7.072,0.11793499681373704
7.074,0.06265042697688264
7.0760000000000005,0.022558046118717
7.078,0.03953877265442408
7.08,0.0703524244746295
7.082,0.05929767455824557
7.0840000000000005,0.10348172055311156
7.086,0.11704725955616124
7.088,0.06696087790088645
7.09,0.08502033571192316
7.0920000000000005,-0.06345417504274734
7.094,-0.019806202721881966
7.096,-0.09015319768886276
7.098,-0.10005328234948646
7.1000000000000005,0.023004390263282798
7.102,0.014799730875457606
7.104,0.07149025493538678
7.106,0.051521787221295315
7.1080000000000005,-0.012173744253454407
7.11,-0.056371133693586636
7.112,-0.15628486289465277
7.114,-0.09775390531807117
7.1160000000000005,-0.0917781590728042
7.118,-0.061525891666401954
7.12,-0.038126916724180115
7.122,-0.04826968960435097
7.1240000000000006,-0.007307353477505442
7.126,-0.006683640498479852
7.128,-0.06794317744895244
7.13,-0.12668215926085816
7.132000000000001,-0.151239915793853
7.134,-0.06385379140990355
7.136,-0.12921293895507943
7.138,-0.06037899792529623
7.140000000000001,-0.11725214080259644
7.142,-0.05429765859370618
7.144,-0.03334004115447639
7.146,-0.07686928797254759
7.148000000000001,-0.09912045651116538
7.15,-0.09926216478710556
7.152,-0.05003349492783282
7.154,-0.1495733334706093
7.156000000000001,-0.09257748860164322
7.158,-0.08562194642808005
7.16,-0.15307879144809278
7.162,-0.07673619749787527
7.164000000000001,-0.09719396018619603
7.166,-0.061969845470660964
7.168,-0.06630479153487837
7.17,-0.05948175587005369
7.172,-0.11470022498804017
7.174,-0.12618467907938274
7.176,-0.17245519296262302
7.178,-0.11950263885153921
7.18,-0.13615656531274478
7.182,-0.11542520633837847
7.184,-0.054337375402918255
7.186,-0.032462666842686186
7.188,-0.05110132793872558
7.19,-0.07580327100312009
7.192,-0.12135033485860512
7.194,-0.1972379969674405
7.196,-0.16740501265902497
7.198,-0.1665743619166279
7.2,-0.08666025549474701
7.202,-0.07729971496657592
7.204,-0.003656623293508403
7.206,-0.061547779793439936
7.208,-0.09293915279247092
7.21,-0.0935783757103792
7.212,-0.15378119212467226
7.214,-0.23563161120831497
7.216,-0.1806703009361724
7.218,-0.0803699774858247
7.22,-0.10853528251252607
7.222,-0.05947077075417592
7.224,-0.07732175603962946
7.226,-0.0429974883862702
7.228,-0.11052801813538639
7.23,-0.1335636912055772
7.232,-0.18407391246674867
7.234,-0.10992734819879896
7.236,-0.19318095755066067
7.238,-0.0876641819839134
7.24,-0.1320009966678476
7.242,-0.05666122317281001
7.244,-0.0924445336441612
7.246,-0.1194895117713777
7.248,-0.12260994143099165
7.25,-0.16416873546008637
7.252,-0.1121191786272486
7.2540000000000004,-0.08728520667864807
7.256,-0.1399045152244041
7.258,-0.18531558101996798
7.26,-0.14393346302737195
7.2620000000000005,-0.09654012107130691
7.264,-0.14652549988334684
7.266,-0.012018539099270642
7.268,-0.10448369787200001
7.2700000000000005,-0.08894662623336429
7.272,-0.12367432870311779
7.274,-0.1823861017048697
7.276,-0.18932741125685967
7.2780000000000005,-0.16901812815042844
7.28,-0.15417171315628958
7.282,-0.0881909720664509
7.284,-0.07735696830366356
7.2860000000000005,-0.052067988377010925
7.288,-0.12261686456779006
7.29,0.003953703710394552
7.292,-0.22482612404422134
7.2940000000000005,-0.12276556773138042
7.296,-0.2177174829174136
7.298,-0.15437195723060196
7.3,-0.14328840056624711
7.3020000000000005,0.01388453251008312
7.304,0.036000914184405194
7.306,-0.036521795157019935
7.308,-0.045033096341859244
7.3100000000000005,-0.07187925183291727
7.312,-0.09358575563892033
7.314,-0.10046398718261439
7.316,-0.06933611606825864
7.3180000000000005,0.01639517400836159
7.32,0.016443135690154362
7.322,0.13016002881978447
7.324,0.07374325503003017
7.3260000000000005,0.11841096112955257
7.328,0.06296970580413573
7.33,0.06030894245463861
7.332,0.015332272611412623
7.3340000000000005,0.06985071492501098
7.336,0.09185839647870943
7.338,0.17655069941772933
7.34,0.06294907327798806
7.3420000000000005,0.1551888734253971
7.344,0.07645902639254114
7.346,0.1521724682993131
7.348,0.10478107456915156
7.3500000000000005,0.11482657665869184
7.352,0.0365470006370284
7.354,0.03950505753674574
7.356,0.03580841564898764
7.3580000000000005,-0.015851255978224215
7.36,0.016967586625066873
7.362,0.007695332423015285
7.364,-0.0260082364703992
7.3660000000000005,0.0032772168930198385
7.368,0.0009559455901516408
7.37,-0.031277305634485386
7.372,-0.09299243614660674
7.3740000000000006,-0.1392182424750096
7.376,-0.13084746809906728
7.378,-0.14032674257369337
7.38,-0.1286811403271915
7.382000000000001,-0.14822620702872316
7.384,-0.03575739762145867
7.386,-0.06474327436382395
7.388,-0.043320068316434104
7.390000000000001,-0.12244986455771056
7.392,-0.14363613855730342
7.394,-0.2112153875954663
7.396,-0.2348241269940752
7.398000000000001,-0.20583269040727525
7.4,-0.1455107720495581
7.402,-0.10529276186586745
7.404,-0.08584148208031944
7.406000000000001,-0.06421720162060018
7.408,-0.10659098140512067
7.41,-0.13273087924420598
7.412,-0.20622284866846413
7.414000000000001,-0.25255989866318956
7.416,-0.15063677028598682
7.418,-0.19964418459757788
7.42,-0.12402753196064525
7.422000000000001,-0.05923728998745595
7.424,-0.053671986997813496
7.426,-0.16546802332277083
7.428,-0.12416481363599763
7.43,-0.1922427982155167
7.432,-0.15499239120692265
7.434,-0.23069688426925716
7.436,-0.17352700411826055
7.438,-0.13164637023349438
7.44,-0.0970582856419313
7.442,-0.1586785426403423
7.444,-0.11635279100792041
7.446,-0.1344331518486064
7.448,-0.14181004736427247
7.45,-0.1556908233872839
7.452,-0.13491863096949264
7.454,-0.19919050701329555
7.456,-0.16307749479297282
7.458,-0.14854189054350825
7.46,-0.22337599559232446
7.462,-0.12269925695847722
7.464,-0.18851567536273017
7.466,-0.14647643779036357
7.468,-0.20165240866018652
7.47,-0.22066158882001408
7.472,-0.25419101010065587
7.474,-0.2692702383047303
7.476,-0.3660047841830829
7.478,-0.23358565983567708
7.48,-0.1931867529757911
7.482,-0.223149693339082
7.484,-0.1595291296608644
7.486,-0.09605184752406742
7.488,0.0907104204232379
7.49,0.17162679315665497
7.492,0.3386461736584936
7.494,0.48544369087974387
7.496,0.5974095815847671
7.498,0.7130299442094771
7.5,0.8841648381511382
7.502,0.8217078793274368
7.5040000000000004,0.7999063417432459
7.506,0.5325433009738914
7.508,0.38836865677142085
7.51,0.17836927292761773
7.5120000000000005,-0.014808599387235194
7.514,-0.20822249349152358
7.516,-0.28212663491761997
7.518,-0.2972759173551284
7.5200000000000005,-0.2721123058340791
7.522,-0.23014702675321838
7.524,-0.30563386353914035
7.526,-0.3152261537844435
7.5280000000000005,-0.34721370600079515
7.53,-0.32282435365869927
7.532,-0.3440848251482399
7.534,-0.31125231612666665
7.5360000000000005,-0.3064773558381898
7.538,-0.23841684428262486
7.54,-0.05548380934882707
7.542,-0.1402874908627831
7.5440000000000005,-0.11863232082057029
7.546,-0.13018288155362528
7.548,-0.17219230152220727
7.55,-0.14698329094271356
7.5520000000000005,-0.13796663393322764
7.554,-0.16217422455119052
7.556,-0.19899015393918681
7.558,-0.160730894710847
7.5600000000000005,-0.16684350906454912
7.562,-0.14851779856805872
7.564,-0.13899534867023547
7.566,-0.09193276794075829
7.5680000000000005,-0.09566279676443563
7.57,-0.11757146793260848
7.572,-0.16582848256930943
7.574,-0.16901853034236494
7.5760000000000005,-0.22814538752821506
7.578,-0.17102810814266095
7.58,-0.16566389692421327
7.582,-0.16137772076766677
7.5840000000000005,-0.07081650309764032
7.586,-0.06604371990292776
7.588,-0.08714386598691937
7.59,-0.14093475683167997
7.5920000000000005,-0.1629168723484653
7.594,-0.22736364788468597
7.596,-0.2492460207135279
7.598,-0.20461939068418653
7.6000000000000005,-0.16321579010099993
7.602,-0.035939429575715956
7.604,-0.10014024587917328
7.606,-0.07969214161984653
7.6080000000000005,-0.09043432332566709
7.61,-0.16991262123514114
7.612,-0.1547891742976526
7.614,-0.26906598182031316
7.6160000000000005,-0.19483834658890467
7.618,-0.17210591889000076
7.62,-0.08700674765730146
7.622,-0.0882314051941445
7.6240000000000006,-0.11112546811400985
7.626,-0.07205554957436532
7.628,-0.1590221875339803
7.63,-0.16854426955817506
7.632000000000001,-0.1693162960241387
7.634,-0.17564920880786328
7.636,-0.13577765975321004
7.638,-0.17484573983073426
7.640000000000001,-0.1745569671879208
7.642,-0.03802739613846172
7.644,-0.12508526373093876
7.646,-0.15745213546597647
7.648000000000001,-0.08355797868729559
7.65,-0.1670712010925709
7.652,-0.12534727223256095
7.654,-0.19737712362648138
7.656000000000001,-0.15112965052562352
7.658,-0.14822138886572714
7.66,-0.19210061320710764
7.662,-0.06448672402361294
7.664000000000001,-0.1656478236069191
7.666,-0.0776646603446601
7.668,-0.06726490800609093
7.67,-0.1494536922218519
7.672000000000001,-0.13622205501233242
7.674,-0.15254220672972235
7.676,-0.19625219334265062
7.678,-0.16891715781758956
7.68,-0.18532407903896614
7.682,-0.11814734709972176
7.684,-0.0818957505679443
7.686,-0.07048476411668064
7.688,-0.09340545366635475
7.69,-0.13137890884518835
7.692,-0.1365232751899486
7.694,-0.19994210692689285
7.696,-0.20352610615066355
7.698,-0.15454915427034724
7.7,-0.1591039311785498
7.702,-0.09951521688530142
7.704,-0.07078490114191234
7.706,0.0021898259394564495
7.708,-0.1729676562035068
7.71,-0.0684158427753436
7.712,-0.21825141635197937
7.714,-0.18842384872929754
7.716,-0.18277267413120182
7.718,-0.140225050023626
7.72,-0.09447130463506799
7.722,-0.05840873943178718
7.724,-0.07814208290963766
7.726,-0.1154591850703024
7.728,-0.09105299233294556
7.73,-0.12695291066920364
7.732,-0.20615981638110267
7.734,-0.15299591261825224
7.736,-0.12625206362777397
7.738,-0.10131217503122318
7.74,-0.1281958393521084
7.742,-0.10898438882858533
7.744,-0.06120569212465935
7.746,-0.0942949972308447
7.748,-0.1470468327324871
7.75,-0.09723931848850556
7.752,-0.12194105623559984
7.7540000000000004,-0.1256689009706816
7.756,-0.146074623723542
7.758,-0.07502471328669413
7.76,-0.16668986697530003
7.7620000000000005,-0.07493456171121143
7.764,-0.08322723358143105
7.766,-0.07057464088783613
7.768,-0.0035502120390369304
7.7700000000000005,-0.09060822519348705
7.772,-0.08985622504689919
7.774,-0.1011690482654551
7.776,-0.15226201798259134
7.7780000000000005,-0.077735272384757
7.78,-0.1550482196686573
7.782,-0.021539989586049777
7.784,0.004869702774575085
7.7860000000000005,0.02352073717002886
7.788,0.03990851155120943
7.79,-0.019544207721735225
7.792,-0.08860736848804945
7.7940000000000005,-0.05563103065546434
7.796,-0.11145697689392785
7.798,-0.06148393484087108
7.8,-0.004867744436073204
7.8020000000000005,0.03749283190239548
7.804,0.1460584000631325
7.806,0.1372691723119675
7.808,0.0390843289911609
7.8100000000000005,0.06466312977846377
7.812,-0.010471605236574429
7.814,0.023279787106519095
7.816,0.003692547615122846
7.8180000000000005,0.09064099989718191
7.82,0.1503424264363274
7.822,0.1837386652432284
7.824,0.15047558714931922
7.8260000000000005,0.21435696421761874
7.828,0.11925186145896347
7.83,0.15945175590868768
7.832,0.09466260013232622
7.8340000000000005,0.15787213531513092
7.836,0.18959293149762085
7.838,0.19466748030197079
7.84,0.24463825385263868
7.8420000000000005,0.2346519873678835
7.844,0.2532222113915749
7.846,0.2795049324219166
7.848,0.23245920705919243
7.8500000000000005,0.258968116920188
7.852,0.20211646685996004
7.854,0.2765633059071893
7.856,0.21831871187954532
7.8580000000000005,0.2660195447009565
7.86,0.1578605930312626
7.862,0.3172220892932507
7.864,0.25914721479423264
7.8660000000000005,0.29162768229818703
7.868,0.32190262301519856
7.87,0.25172299391947933
7.872,0.23025167984459408
7.8740000000000006,0.2068208937751824
7.876,0.199184948283049
7.878,0.17193406825162771
7.88,0.19582789571957196
7.882000000000001,0.2237177031538838
7.884,0.24524450843607026
7.886,0.29540863096490727
7.888,0.24574525220692986
7.890000000000001,0.2227205956858443
7.892,0.12814822455146316
7.894,0.08850570992850083
7.896,0.07446937482493386
7.898000000000001,0.13914839649017327
7.9,0.08752384827568876
7.902,0.13275465594428934
7.904,0.23513103864487186
7.906000000000001,0.14979636943714253
7.908,0.15148619676245326
7.91,0.0622427876934003
7.912,0.026515052128254543
7.914000000000001,0.0021182925194387255
7.916,-0.031715110150532376
7.918,0.021023230190286624
7.92,0.0820729625529623
7.922000000000001,0.14386922880051492
7.924,0.04000522743861183
7.926,0.03722910598731673
7.928,0.045934914398952184
7.930000000000001,-0.06244675843391757
7.932,-0.03344160631946131
7.934,-0.04866378018379461
7.936,0.03587050468623132
7.938,-0.040039183055681674
7.94,-0.041299192196733434
7.942,0.02043825357303729
7.944,0.017776159304918437
7.946,-0.03803665746812193
7.948,-0.018029742781937516
7.95,-0.035352269422717686
7.952,-0.044160215303281236
7.954,-0.0902712957969726
7.956,-0.003304326702128907
7.958,-0.11624852446561319
7.96,-0.04808304424698507
7.962,-0.025748899891482352
7.964,-0.058577876990209
7.966,-0.013318207752036798
7.968,-0.005753629478278724
7.97,-0.027356438668216864
7.972,-0.01461205592139763
7.974,-0.1084601292965506
7.976,-0.10576254257631695
7.978,-0.11732449640038534
7.98,-0.061507062723264797
7.982,-0.039464105319810115
7.984,0.04971756309672667
7.986,-0.02566986063566456
7.988,0.011329688507484767
7.99,-0.029116574383301945
7.992,-0.1003134963158399
7.994,-0.09203638136080752
7.996,-0.15085463161797324
7.998,-0.07733959494105945
8.0,-0.03152545533282619
8.002,-0.0008203200671731293
8.004,-0.017196365778516416
8.006,0.06349705676102159
8.008000000000001,-0.008472976234603273
8.01,-0.07566286186915502
8.012,-0.0935639694043414
8.014,-0.09997629030439972
8.016,-0.13578609803697964
8.018,-0.014563947002567738
8.02,-0.04036649954171109
8.022,0.027805606829619488
8.024000000000001,0.010689737304300458
8.026,-0.02599141768207338
8.028,0.012506262143747213
8.03,-0.08122828911837447
8.032,-0.0981941471689003
8.034,-0.05411478152054215
8.036,-0.041539257292299424
8.038,-0.08104305550917609
8.040000000000001,0.03243606805765377
8.042,-0.04010418247730799
8.044,-0.005725405802403195
8.046,0.019909125202794798
8.048,-0.07602847178336916
8.05,-0.028969434283993907
8.052,-0.051016675095070796
8.054,-0.012298681785729751
8.056000000000001,-0.07166088674943301
8.058,-0.04233898134511748
8.06,-0.04937025968645629
8.062,-0.06550034357464654
8.064,0.049306177400071025
8.066,0.0210923460713332
8.068,-0.003880520458335184
8.07,-0.010956605704851782
8.072000000000001,-0.03327442406565417
8.074,-0.057567793817331986
8.076,-0.06269678276124095
8.078,-0.0991149508596123
8.08,-0.015664787291651598
8.082,-0.016459390322531214
8.084,0.015559703119283716
8.086,0.06323188952491791
8.088000000000001,0.07542798083933586
8.09,-0.02836240909930069
8.092,-0.08122894406025807
8.094,-0.047198525863918435
8.096,-0.10470560024485613
8.098,-0.0234467073275412
8.1,-0.06601803212767282
8.102,-0.005311246023417898
8.104000000000001,0.087439682138669
8.106,0.07904330874793158
8.108,-0.00528405687714191
8.11,-0.013872511425267886
8.112,-0.05832467879160698
8.114,-0.06697701882787466
8.116,-0.06803847518799638
8.118,-0.03267964915168751
8.120000000000001,0.03875211385655361
8.122,0.04549535547598252
8.124,0.05940617206238719
8.126,0.04802191282809482
8.128,0.03759013791654932
8.13,0.025109441995671337
8.132,-0.06343248858127465
8.134,-0.011017105468165018
8.136000000000001,0.013085090046355151
8.138,0.02605985195890934
8.14,0.10856721518359466
8.142,0.06545409251812766
8.144,0.12341437691551366
8.146,0.11546638321503834
8.148,0.11173250067697299
8.15,0.09441166127245772
8.152000000000001,0.13165474074216027
8.154,0.15806160995319055
8.156,0.17356791380275188
8.158,0.14469562400539582
8.16,0.18614270998495497
8.162,0.2041661034901425
8.164,0.284054096159172
8.166,0.2572919809080206
8.168000000000001,0.320015995810727
8.17,0.2731561909883674
8.172,0.26300246547026
8.174,0.1943625316074661
8.176,0.22393978629776368
8.178,0.19744659372780296
8.18,0.18997177094466203
8.182,0.22077959192683247
8.184000000000001,0.3130072231115809
8.186,0.2986820889282439
8.188,0.19973993901180415
8.19,0.23283881887695704
8.192,0.1693370725562713
8.194,0.05246920898444457
8.196,0.07510552786955144
8.198,0.06014249113088404
8.2,0.10703278156620963
8.202,0.1792976817000443
8.204,0.23570145279039445
8.206,0.08301254833782189
8.208,0.11175901196945544
8.21,0.05868639410756276
8.212,0.019779384179201914
8.214,-0.04717392010532448
8.216,0.01598550001018098
8.218,-0.01457584784544804
8.22,0.04575273749142649
8.222,0.11465114599389112
8.224,0.10094328208050991
8.226,0.041916818877239914
8.228,0.028567946550088184
8.23,0.04981175120609095
8.232,-0.039652374109336475
8.234,-0.040306170642761166
8.236,0.02505053914431703
8.238,-0.025764982889920258
8.24,0.08055754290582694
8.242,0.05825901986073494
8.244,0.04004823991733765
8.246,0.0387262621981031
8.248,0.029445316498735084
8.25,-0.0015967384469745723
8.252,0.03731914410328743
8.254,0.049000997324061726
8.256,-0.03260104232311521
8.258000000000001,-0.004200526174533996
8.26,0.043452977136750864
8.262,-0.006202693052790257
8.264,0.06478074018426058
8.266,0.06152960863664649
8.268,0.08147182020615718
8.27,0.035787739445293495
8.272,0.07094039507048508
8.274000000000001,-0.026889405047966698
8.276,0.0034905922450137634
8.278,-0.0778385630239401
8.28,0.02106547340421345
8.282,0.051574329551888266
8.284,0.0938361996543952
8.286,0.08264984733081182
8.288,0.11820098228108172
8.290000000000001,0.04750283209919656
8.292,0.011123898385093395
8.294,-0.00907280599124597
8.296,-0.11738031299773141
8.298,-0.03356539936192058
8.3,-0.04874920602269021
8.302,0.029824328576889613
8.304,-0.024731132734145053
8.306000000000001,0.03497847116310249
8.308,-0.05124133596650103
8.31,-0.09553380749926615
8.312,-0.11014339911616515
8.314,-0.052988071692507244
8.316,-0.07592685958196198
8.318,0.01170205481223785
8.32,0.09499550157771117
8.322000000000001,0.3609347065115542
8.324,0.4340579691973119
8.326,0.6206074611493483
8.328,0.785873623647016
8.33,0.8844497623626263
8.332,0.9656043775835105
8.334,1.027704266066995
8.336,0.9318873670066433
8.338000000000001,0.8561294502096419
8.34,0.6506294840873826
8.342,0.4850388062942618
8.344,0.3516452822659197
8.346,0.239597923692519
8.348,-0.01077869319055699
8.35,0.008791788670690987
8.352,-0.1325983501807277
8.354000000000001,-0.11886077207677676
8.356,-0.1022098706097092
8.358,-0.1873788162450238
8.36,-0.1558181908114778
8.362,-0.18763340218833952
8.364,-0.08202215241163795
8.366,-0.11280418816630425
8.368,0.0290496621293636
8.370000000000001,0.03239488902874124
8.372,-0.018196056645552152
8.374,0.0073026976889506235
8.376,-0.00889900384589673
8.378,-0.035526436444988596
8.38,0.0249495125645516
8.382,0.08762048120338523
8.384,0.10684322911604459
8.386000000000001,0.12399621979918422
8.388,0.10842492485650124
8.39,0.06478591992755336
8.392,0.011534629987599392
8.394,-0.01715970353541281
8.396,0.0401629206108437
8.398,-0.08175833280825945
8.4,0.11165475049042448
8.402000000000001,0.05006328055922804
8.404,0.13327506862583804
8.406,0.15226666526030028
8.408,0.050946259893696624
8.41,0.06914039529017321
8.412,0.0046186537222569005
8.414,-0.0412898651048908
8.416,0.0431743951713338
8.418000000000001,0.025877292834994098
8.42,0.06455010633384656
8.422,0.15348689401037763
8.424,0.0782517046814089
8.426,0.07733519486362389
8.428,0.06050119513027956
8.43,0.03904627994366072
8.432,0.02020037758816303
8.434000000000001,0.006218987395721753
8.436,0.020513793101504297
8.438,0.0636385853916796
8.44,0.07061820978117014
8.442,0.0995618843328799
8.444,0.07141604436923588
8.446,0.04965892197735357
8.448,0.11440232692343429
8.45,-0.008762596366594815
8.452,0.11642747856110287
8.454,0.03148715082336949
8.456,0.0047829135232282625
8.458,0.06056254436388252
8.46,0.022909558154873184
8.462,0.07301743700463666
8.464,0.08693561787948832
8.466,0.06566386832846856
8.468,0.11177442701650547
8.47,0.08459324010147867
8.472,0.05245246523664328
8.474,0.03566263687571231
8.476,-0.00760305536051324
8.478,-0.009538764606385334
8.48,0.04570963936000348
8.482,0.11221992653062207
8.484,0.07924520503392746
8.486,0.15076844948424786
8.488,0.1023335685963961
8.49,0.028441323381916517
8.492,0.09431627347084745
8.494,-0.023640928822512203
8.496,-0.04216622590838523
8.498,0.009994734688977063
8.5,0.11247713964152656
8.502,0.05601256922603307
8.504,0.129405725499327
8.506,0.1506670131747056
8.508000000000001,0.10708027328543364
8.51,0.04662463409948967
8.512,-0.0419562793536041
8.514,-0.005833326583201867
8.516,0.010914725680513453
8.518,0.021607603620272062
8.52,0.0800496884452701
8.522,0.17797712705953683
8.524000000000001,0.0661275411875628
8.526,0.09436498811308858
8.528,0.1039133480306905
8.53,0.006760987926613334
8.532,0.054922777414058495
8.534,0.007497766884474072
8.536,0.009782409742509317
8.538,0.08171559961778871
8.540000000000001,0.07367431715471165
8.542,0.1267257176521953
8.544,0.04486849663994008
8.546,0.04448505064733409
8.548,0.07619222905801495
8.55,0.08247468693387952
8.552,0.052707359010772996
8.554,0.0419420364934216
8.556000000000001,0.047447182504224805
8.558,0.021729587007941403
8.56,0.0001535219345677255
8.562,0.08904514804671237
8.564,0.11590981547332735
8.566,0.06939201148818935
8.568,0.11714773067562637
8.57,0.052298245525389885
8.572000000000001,0.08411679131939861
8.574,0.031039699995464416
8.576,0.02326184068216766
8.578,0.013393131763493082
8.58,-0.0010016135420407718
8.582,0.09509946010391576
8.584,0.11305441603446971
8.586,0.13444107762921623
8.588000000000001,0.13142510176451877
8.59,0.08471533850595905
8.592,0.06601573376104021
