Time,ECG
0.0,1.0198071205071695
0.002,0.8804971292074344
0.004,1.047255761983842
0.006,0.9242131931231816
0.008,0.5657411723781018
0.01,0.7358985794168068
0.012,0.4915373338088633
0.014,0.20034000118784825
0.016,0.24338083491248957
0.018000000000000002,0.2925795253469632
0.02,0.06175774663620047
0.022,-0.08294586365909686
0.024,-0.02585444429856909
0.026000000000000002,-0.1786617352064792
0.028,-0.06202696319918241
0.03,-0.25840299067748806
0.032,-0.14629943194245926
0.034,-0.20589068710210645
0.036000000000000004,-0.13586089025108872
0.038,-0.01308874448081173
0.04,0.006411988196665407
0.042,0.057805842032500464
0.044,-0.016949005635201717
0.046,-0.0003739311595317155
0.048,0.04572094089240512
0.05,0.14818613805661437
0.052000000000000005,0.12582471532082048
0.054,0.010610178348673904
0.056,-0.1311821402807378
0.058,-0.04916279821810447
0.06,0.03345997166536719
0.062,0.05959093853779629
0.064,-0.1392837621224809
0.066,-0.017597086734560514
0.068,0.05059401249568977
0.07,0.026221113913553133
0.07200000000000001,-0.11229871048971526
0.074,0.0730271076354552
0.076,0.03270598185329872
0.078,-0.012275000707828533
0.08,0.11624830108502207
0.082,-0.062238079122527754
0.084,0.12142739317798883
0.08600000000000001,-0.0989776113883866
0.088,-0.03908337993996007
0.09,-0.2217488294372673
0.092,0.016063915636430323
0.094,-0.04801300819550003
0.096,0.045373837953199575
0.098,0.06891053350633826
0.1,-0.002711810873017851
0.10200000000000001,-0.024244297928660955
0.10400000000000001,-0.009787875473750735
0.106,0.013804187250840582
0.108,0.001694876037955019
0.11,0.07025754242237128
0.112,0.04464788174070594
0.114,-0.07593446292863286
0.116,-0.016324522590408626
0.11800000000000001,-0.03376294968967938
0.12,-0.1557195581290747
0.122,0.06236776792363077
0.124,0.12237014314300494
0.126,0.07966246261416973
0.128,0.12414342004546176
0.13,0.040628254728977485
0.132,0.05918566532789846
0.134,0.21341305237693076
0.136,0.08900221267037649
0.138,0.18407131368230867
0.14,0.025048250752926632
0.14200000000000002,0.05813640097926345
0.14400000000000002,0.14772471043537183
0.146,0.06445304760082046
0.148,0.12133289838129321
0.15,0.10749271205005431
0.152,0.16590080450918865
0.154,0.38828316299667454
0.156,0.2118824202154044
0.158,0.1140249986512677
0.16,0.15885811286843654
0.162,0.11530472229643159
0.164,0.45458243722013314
0.166,0.19270653689887204
0.168,0.3023905050279935
0.17,0.31728912711068985
0.17200000000000001,0.3615992866771773
0.17400000000000002,0.23190701678400136
0.176,0.32501365932752
0.178,0.2242158089719309
0.18,0.2743014547470962
0.182,0.40465485402294393
0.184,0.1516950584156444
0.186,0.47430815771402196
0.188,0.3216424861654111
0.19,0.3985277707400229
0.192,0.3105671072907497
0.194,0.27517392546100183
0.196,0.2876636029270922
0.198,0.1782636899878703
0.2,0.33059875380781917
0.202,0.41211337664509784
0.20400000000000001,0.3098284998901762
0.20600000000000002,0.37106604814954247
0.20800000000000002,0.40494062631617567
0.21,0.35766994404154645
0.212,0.3565316882035287
0.214,0.44615763392695995
0.216,0.4353989234138587
0.218,0.326936574245938
0.22,0.41066287755221653
0.222,0.3314166381965019
0.224,0.3112092026731366
0.226,0.2693268894210747
0.228,0.24085636403102234
0.23,0.41090395087059706
0.232,0.26671739461957406
0.234,0.28167138275399434
0.23600000000000002,0.2649108574076101
0.23800000000000002,0.27628764658930427
0.24,0.2541038103183326
0.242,0.09852343087489145
0.244,0.2700893704713789
0.246,0.2300733557658767
0.248,0.21692414280458228
0.25,0.06874246309351185
0.252,0.1837128835584122
0.254,0.12981733240533977
0.256,0.24943113998099553
0.258,0.04253006239968807
0.26,0.15032074035445891
0.262,0.06853020925209317
0.264,0.2920947723337188
0.266,0.3422967302872828
0.268,-0.047313023246746536
0.27,0.1073667005283942
0.272,-0.005282364722753619
0.274,0.2504661184314139
0.276,-0.05096175610244148
0.278,0.02497310963031425
0.28,0.23317958912740314
0.28200000000000003,0.20347462726642507
0.28400000000000003,-0.07464383895556928
0.28600000000000003,0.004402799167914962
0.28800000000000003,0.007561453324506872
0.29,-0.017550995591984975
0.292,-0.03322160367496824
0.294,0.12256198625080936
0.296,0.020421649819909047
0.298,0.049415905013622884
0.3,0.202214394837673
0.302,0.015884933699556413
0.304,-0.14676806824144403
0.306,0.009376294149693303
0.308,0.24525557976299747
0.31,-0.043740404525627816
0.312,0.002357563225909835
0.314,0.13573074339494262
0.316,0.12695791211532265
0.318,0.11506121664518873
0.32,-0.029055384382436444
0.322,0.1252911185229124
0.324,0.05171533138225848
0.326,0.013920165192121704
0.328,0.23441323528333918
0.33,0.13304717657243684
0.332,-0.15310541338010605
0.334,0.0055220148124014235
0.336,0.04322726235401864
0.338,-0.04832801646604288
0.34,0.08136372090063042
0.342,-0.056275710180622586
0.34400000000000003,0.19447025722638495
0.34600000000000003,0.21257116272384327
0.34800000000000003,0.006752391754950349
0.35000000000000003,-0.0059423475605549815
0.352,-0.012505898714089464
0.354,-0.14376612543667752
0.356,0.17901473375706062
0.358,0.005502317063302994
0.36,0.09725290365641993
0.362,0.046174657965066444
0.364,0.0288588984739768
0.366,0.14108782351084248
0.368,0.005715634826479585
0.37,0.015389256293521532
0.372,-0.03230828289620346
0.374,-0.053056595955116886
0.376,0.060300470356202104
0.378,0.024280247622096185
0.38,-0.08528838299504278
0.382,0.11054962634841017
0.384,-0.04536459767391614
0.386,-0.0705569033248102
0.388,-0.07377587325330061
0.39,-0.0691221432788625
0.392,0.019065892534426407
0.394,0.05446261636867705
0.396,0.12837320051252304
0.398,-0.05312440731364613
0.4,0.049840477686581244
0.402,-0.015589973511488544
0.404,-0.17789535241236004
0.406,-0.04570580182623993
0.40800000000000003,-0.1036477298508291
0.41000000000000003,0.041861560302774846
0.41200000000000003,-0.058790646085362754
0.41400000000000003,-0.061150209847181225
0.41600000000000004,-0.15300532019240903
0.418,0.0663972038262829
0.42,0.039008124110282996
0.422,-0.056845723161900244
0.424,0.02332621907926258
0.426,-0.017308379277812425
0.428,0.02566811121793012
0.43,0.059546018821782315
0.432,-0.1312533326109527
0.434,0.03575179106820381
0.436,0.09500761059069081
0.438,0.029917261001179717
0.44,-0.056645384941491704
0.442,0.06126349802858391
0.444,-0.07698495936943547
0.446,-0.004094007674077425
0.448,-0.017204031049360635
0.45,-0.006951842125485525
0.452,-0.0732452253340082
0.454,0.11087577651464954
0.456,0.05935706115911273
0.458,-0.07810748400004726
0.46,0.12016450328359625
0.462,-0.07044130973828139
0.464,-0.0015561703180167498
0.466,-0.003368624418188306
0.468,0.050504457959413634
0.47000000000000003,-0.04768688806811318
0.47200000000000003,-0.10296695292628327
0.47400000000000003,0.0686206408342747
0.47600000000000003,-0.00034609601370803086
0.47800000000000004,-0.027759868173662595
0.48,0.0041654541157810625
0.482,0.20448879622236388
0.484,0.06307068456332489
0.486,0.07521718348116352
0.488,0.22078910670131266
0.49,0.09440424698714403
0.492,-0.09492201830193074
0.494,-0.02562209313873279
0.496,-0.006826789990204127
0.498,-0.09391227619600448
0.5,0.043062012641283766
0.502,-0.06918115192671988
0.504,-0.1330649070119179
0.506,0.09044902511601007
0.508,-0.012746263341613046
0.51,-0.11838946798791185
0.512,-0.06319409375745634
0.514,0.24332722327726225
0.516,-0.05158926699247106
0.518,-0.11270979045979658
0.52,-0.04394352014553356
0.522,-0.004497534810829617
0.524,0.03305506939932899
0.526,-0.11705497946895697
0.528,-0.00404332102094959
0.53,0.21304489504277635
0.532,0.01964651111073852
0.534,-0.03881901179847463
0.536,-0.034891925424646024
0.538,0.04779533703155201
0.54,-0.008284558809755468
0.542,-0.04170732209041238
0.544,0.0035126934927030805
0.546,-0.12702520140555373
0.548,-0.003565257482994494
0.55,0.03869307763986676
0.552,0.11975289679299898
0.554,-0.0661874095776297
0.556,0.16135221111574535
0.558,0.161016058315553
0.56,0.07240784560131339
0.562,0.03855157526155
0.5640000000000001,0.07889404271539086
0.5660000000000001,0.4063347678466739
0.5680000000000001,-0.05021303968100321
0.5700000000000001,0.43932994335227127
0.5720000000000001,0.04783584399915965
0.5740000000000001,0.22592826934587562
0.5760000000000001,0.2511806861304082
0.578,0.19382111448898498
0.58,0.08861082002860851
0.582,0.29119927154026043
0.584,0.21124956982897122
0.586,0.15210463599024707
0.588,0.33975931904160506
0.59,0.26326234787488
0.592,0.2655530919097873
0.594,0.20374811707661933
0.596,0.2265530670672939
0.598,0.2332810485475334
0.6,0.17678510962507313
0.602,0.1560607263392788
0.604,0.07765234176197584
0.606,0.10903818070450971
0.608,0.153563801933142
0.61,0.16075002055299284
0.612,0.14900422578676925
0.614,0.13588165360632046
0.616,0.006097429472749924
0.618,0.0271364320477792
0.62,0.01910354127472083
0.622,0.10278340348777756
0.624,-0.10887392683933692
0.626,0.07938995896690541
0.628,0.11119567585010506
0.63,0.09357732006278494
0.632,0.0003985606057228877
0.634,0.20159471364603737
0.636,0.08465030093681909
0.638,0.02205291817975269
0.64,-0.033585918998027826
0.642,-0.06709300983516586
0.644,0.0128373665128063
0.646,-0.16021850411112812
0.648,-0.02662745501401064
0.65,-0.06193658325277785
0.652,0.12784152505355742
0.654,-0.08906353262658943
0.656,0.04888038041292369
0.658,0.22488665488412535
0.66,-0.18607432252422607
0.662,0.015242790000092878
0.664,-0.017160724107380062
0.666,0.24776700139044333
0.668,-0.025723721471113667
0.67,-0.01341624316257444
0.672,0.0566083110493223
0.674,0.08613533798353577
0.676,-0.10060405203931466
0.678,-0.027434367064802793
0.68,0.04218799867553088
0.682,0.10233717590199826
0.684,-0.09858919358466572
0.686,-0.1279570226608332
0.6880000000000001,0.08351977828381335
0.6900000000000001,-0.028304592600522014
0.6920000000000001,-0.022671653915369103
0.6940000000000001,-0.18141705184218834
0.6960000000000001,0.026290652486014268
0.6980000000000001,0.1786615051784474
0.7000000000000001,0.09155733638324752
0.7020000000000001,-0.09296046478628146
0.704,0.0891294820383924
0.706,0.012933643143955561
0.708,0.048124209347930914
0.71,0.006425490405340712
0.712,-0.14254602685598736
0.714,-0.06105390473960633
0.716,-0.020177876365205544
0.718,-0.1327949787153128
0.72,0.05437952509361946
0.722,-0.12494752226763645
0.724,0.0832728149268759
0.726,0.012470976402606707
0.728,-0.1860682803513837
0.73,0.05095850478119727
0.732,0.2142090432365605
0.734,0.32562480928836085
0.736,0.3679394028234182
0.738,0.48332231315013974
0.74,0.5866606801466576
0.742,0.6771323436312767
0.744,0.8511560274743224
0.746,0.8222482451433848
0.748,1.1523128410464725
0.75,1.0994872974621595
0.752,0.8780118460914648
0.754,0.8820451539864772
0.756,0.8236153231864062
0.758,0.6559717449125526
0.76,0.6212252263706718
0.762,0.5157509896620147
0.764,0.5464353321160828
0.766,0.2669398681596118
0.768,0.03146418566309361
0.77,0.006991667758213836
0.772,0.06313338144293562
0.774,-0.0906460649233273
0.776,-0.13521580868502406
0.778,-0.4238960677654693
0.78,-0.22791594289215378
0.782,-0.3892675765199677
0.784,-0.23343574288698313
0.786,-0.15083953778509449
0.788,-0.07902313974653204
0.79,0.11493305018252296
0.792,0.1648236921252154
0.794,0.06577949660372959
0.796,-0.01651855016856044
0.798,0.11901927442153316
0.8,-0.19770840385113236
0.802,0.00798691032577667
0.804,-0.04252633492736207
0.806,-0.126295343065973
0.808,-0.0563335179132889
0.81,-0.062023810140798205
0.812,0.19189808008812212
0.8140000000000001,0.10904499889519577
0.8160000000000001,-0.04645601942691349
0.8180000000000001,0.05739410801888818
0.8200000000000001,-0.001511018237116431
0.8220000000000001,0.11719528593083423
0.8240000000000001,-0.10998018313067832
0.8260000000000001,-0.09329183239513957
0.8280000000000001,0.022776101977966458
0.8300000000000001,0.04616167499182267
0.8320000000000001,0.042079025128816464
0.834,0.04971334836283148
0.836,0.08124994954760535
0.838,0.11452657420292493
0.84,-0.21575871086432447
0.842,-0.052544273468635286
0.844,-0.030144042354308218
0.846,0.17454558462514747
0.848,-0.0802341674042399
0.85,-0.10527680612057705
0.852,0.06289595154111147
0.854,0.09801511501605302
0.856,0.0880809101376244
0.858,-0.041189433079046565
0.86,-0.09302383047310923
0.862,0.15713247546218712
0.864,-0.04213415781935545
0.866,-0.041951543828396776
0.868,0.28539420609208427
0.87,-0.022971313399700544
0.872,0.193988566141023
0.874,-0.08050659343257213
0.876,0.0034037946346187065
0.878,0.20453395670131308
0.88,0.15449953874612993
0.882,0.15036524744536756
0.884,-0.05151469589140073
0.886,0.27493661386197005
0.888,-0.036425504354513624
0.89,0.11285645542894004
0.892,0.11644703848248385
0.894,0.119777156536517
0.896,0.20648244230213364
0.898,0.11113395564234266
0.9,0.2244652028556634
0.902,-0.04208280536497169
0.904,0.11531853981928743
0.906,0.27266475518542727
0.908,0.2775024068227603
0.91,0.1941168751949471
0.912,0.07249449348557449
0.914,0.3246649053250966
0.916,0.16017860719665866
0.918,0.16707093205964435
0.92,0.21580069988173012
0.922,0.3209720566184109
0.924,0.33151652062102027
0.926,0.2439837516777817
0.928,0.309136057907027
0.93,0.4808158559831488
0.932,0.3317835360513237
0.934,0.3967511694145826
0.936,0.3565512419830618
0.9380000000000001,0.2700693526020574
0.9400000000000001,0.39425997993027667
0.9420000000000001,0.39906435682196684
0.9440000000000001,0.35441013588763437
0.9460000000000001,0.29962711529974917
0.9480000000000001,0.439278499136941
0.9500000000000001,0.18110610184229828
0.9520000000000001,0.39270281062209983
0.9540000000000001,0.4016909538982326
0.9560000000000001,0.3818942887640519
0.9580000000000001,0.36789772754178024
0.96,0.21757934770649714
0.962,0.4536830109545347
0.964,0.3363774616195363
0.966,0.3319526771518839
0.968,0.36510658392771883
0.97,0.4127341127953834
0.972,0.4089918401027369
0.974,0.25385264213472064
0.976,0.3314549603141602
0.978,0.4689476872384385
0.98,0.2631595755523777
0.982,0.2372353786390335
0.984,0.17346157691472835
0.986,0.3756243775884701
0.988,0.07420069510412988
0.99,0.13202244408864583
0.992,0.07327161514526787
0.994,0.23463977159231653
0.996,0.2474577904894129
0.998,0.19269499293469305
1.0,0.40911026315914006
1.002,0.23121255853611233
1.004,0.1667115786478989
1.006,0.20163848894562492
1.008,0.1916652382189793
1.01,0.07105374200798933
1.012,0.1506602382188285
1.014,0.0995690732817489
1.016,0.13482875965891206
1.018,0.28261679965729664
1.02,0.03758483064588592
1.022,0.04560302572403752
1.024,0.12566721316151463
1.026,0.053208268177398835
1.028,0.0476190281342907
1.03,0.01539633056715458
1.032,-0.013093682217785584
1.034,0.04703339452150845
1.036,0.09111511796666802
1.038,-0.09610918259781444
1.04,0.024269787148963256
1.042,-0.15167547092644523
1.044,0.07063252942867886
1.046,0.217417085927642
1.048,0.046033537043683445
1.05,0.12232072097909903
1.052,0.0215938693689115
1.054,-0.006429570149029175
1.056,0.1471142496227036
1.058,0.0023603429826184567
1.06,0.02771576314321219
1.062,-0.013622976710510881
1.064,-0.20795333933145327
1.066,-0.059205569874074555
1.068,-0.13719099647348704
1.07,0.07261082364047433
1.072,-0.018727522418437604
1.074,0.005979705496154425
1.076,0.029692763134272382
1.078,-0.3039630927355244
1.08,-0.03896053646979892
1.082,0.0906164640851558
1.084,-0.007103633239971612
1.086,-0.19581322309540994
1.088,-0.07294017929123112
1.09,-0.005487322460452102
1.092,0.020151061719513693
1.094,0.10887274328901494
1.096,0.10294221361292975
1.098,0.07743803516742748
1.1,-0.0596217357980938
1.102,0.05117619724751864
1.104,0.008753853355472269
1.106,0.11036724914076002
1.108,0.02567938764518551
1.11,-0.0424757136627583
1.112,0.0021938083124432173
1.114,0.0689889862638547
1.116,0.02279259374563481
1.118,0.09280493841955308
1.12,0.08255405620275558
1.122,0.07006947193818885
1.124,-0.06542355611517786
1.1260000000000001,-0.1149268560720928
1.1280000000000001,-0.09993813009499054
1.1300000000000001,-0.07469543997366805
1.1320000000000001,-0.15933485892346175
1.1340000000000001,-0.14714994390090663
1.1360000000000001,0.05021099715235646
1.1380000000000001,-0.05363545739596136
1.1400000000000001,-0.07399581406144634
1.1420000000000001,-0.012730063996800375
1.1440000000000001,0.021210773496547698
1.1460000000000001,0.07353880827883187
1.1480000000000001,-0.10719512245780083
1.1500000000000001,0.023672909141793815
1.1520000000000001,0.050302439971704284
1.154,0.08605826331914607
1.156,-0.13550957765122232
1.158,0.10239617618312316
1.16,0.01923173142578729
1.162,0.12183002781965133
1.164,-0.14918844608188697
1.166,0.1057494347146487
1.168,0.16345605291507512
1.17,-0.02679486088268908
1.172,0.14258082557095628
1.174,0.03571320435346495
1.176,-0.08636123926806144
1.178,-0.15473175603536252
1.18,-0.029679567474068892
1.182,0.08323146084962557
1.184,0.16956776720967384
1.186,-0.13335636813189317
1.188,0.032924962728095426
1.19,0.04271590256965791
1.192,-0.005006220127422439
1.194,0.14772097553877633
1.196,0.2605892883954865
1.198,0.13537559279176767
1.2,0.22317209753107264
1.202,-0.12466415074416069
1.204,-0.042340794689386216
1.206,0.0009889510790930824
1.208,0.143721069601563
1.21,-0.13024603002091015
1.212,0.08292156414146261
1.214,0.1970616775625291
1.216,0.09096684399956687
1.218,-0.062173172801290214
1.22,0.0619167038026133
1.222,0.05344502216253044
1.224,0.15671214805784503
1.226,-0.02364615273765969
1.228,0.10607531202511451
1.23,0.0071060314248220565
1.232,-0.13217447608507787
1.234,0.13289679339920657
1.236,0.005228002485882122
1.238,0.07721253307234568
1.24,-0.04242839413776049
1.242,-0.08756629363629978
1.244,-0.048218916695323806
1.246,0.19525420231712856
1.248,0.19843031562363136
1.25,-0.000917497900861865
1.252,-0.14991890516118583
1.254,0.011281681787576785
1.256,-0.002825340285050674
1.258,0.060744878200593266
1.26,-0.12383707425269753
1.262,0.06241720086078819
1.264,0.04313066082511797
1.266,0.05996978237746703
1.268,0.050140891205685656
1.27,0.07465681115123912
1.272,-0.046379955797721244
1.274,0.004375098239943387
1.276,-0.018515029993991888
1.278,-0.0037015712028228374
1.28,0.0045431771961443185
1.282,0.11701664182575931
1.284,0.02585119428676178
1.286,0.21493654531249898
1.288,-0.06663100268652214
1.29,0.005862159522351496
1.292,0.014628796240872589
1.294,0.1035156300319923
1.296,-0.0009014589472121012
1.298,0.06912526415949032
1.3,-0.0371706514579292
1.302,-0.17230991520636538
1.304,0.16998923213578443
1.306,0.21783618307083547
1.308,0.14477855282176944
1.31,0.022397924201494487
1.312,0.13601052891578802
1.314,-0.06435910444479973
1.316,0.21041599430579172
1.318,-0.0710521200040728
1.32,0.27457797513567606
1.322,0.0958409612288966
1.324,0.2833299533039513
1.326,0.1530558800882552
1.328,0.21311278076068874
1.33,0.30806099105952817
1.332,0.24021973673697408
1.334,0.29319855960027796
1.336,0.2509351893389599
1.338,0.26967112171660385
1.34,0.41040477481014803
1.342,0.3887834297403155
1.344,0.2895104814148386
1.346,-0.014143806864895025
1.348,0.145447553258164
1.35,0.2672259623315947
1.352,0.20495916620465313
1.354,0.261716408578783
1.356,0.09724965201959519
1.358,0.16291499572021623
1.36,0.32567436212536893
1.362,0.02830340447312349
1.364,0.18465676001196624
1.366,0.06976494475766112
1.368,0.1427457320678602
1.37,0.08726852194659977
1.372,0.10482837608251845
1.374,0.18149596115485384
1.3760000000000001,0.09709877946604516
1.3780000000000001,-0.051267188360599465
1.3800000000000001,-0.0037952510929397457
1.3820000000000001,-0.023815743198651793
1.3840000000000001,0.04633776254187864
1.3860000000000001,-0.061380961002106826
1.3880000000000001,-0.0010496407568349603
1.3900000000000001,-0.03571432966114029
1.3920000000000001,-0.08022547369516471
1.3940000000000001,-0.05225279707825481
1.3960000000000001,0.005304920240377719
1.3980000000000001,0.09724058401321348
1.4000000000000001,-0.13520626602869446
1.4020000000000001,-0.14095547086033597
1.4040000000000001,0.16267204982345612
1.4060000000000001,-0.06989364208803812
1.408,-0.01734674038222323
1.41,0.09747666793331733
1.412,-0.02575486306355342
1.414,0.09847233792193145
1.416,-0.15119528228617388
1.418,0.05687018560011829
1.42,-0.15588485958086903
1.422,-9.574305737181225e-05
1.424,0.058224180338528025
1.426,0.11255122781478538
1.428,-0.1938912553259849
1.43,-0.059273950343043905
1.432,0.036356214093441704
1.434,-0.11253533691855161
1.436,-0.0974150810586796
1.438,0.01699181521404
1.44,0.057649386376980125
1.442,0.29121477641041243
1.444,0.10056951986158288
1.446,-0.1483440978819817
1.448,0.01451802604071357
1.45,-0.08381315018201742
1.452,0.09485359510201609
1.454,-0.09110127951058607
1.456,-0.08547078173851408
1.458,0.021362445507308172
1.46,-0.13053134005893577
1.462,-0.18336518461898316
1.464,-0.056674818098928256
1.466,0.16247742609534802
1.468,-0.09305394184444712
1.47,-0.20167051510778955
1.472,-0.13949225852667507
1.474,0.012487208759713778
1.476,-0.019558834727812467
1.478,-0.0925586475834251
1.48,0.007286931536387777
1.482,0.22148373987013362
1.484,0.31836641526417603
1.486,0.3703645226804194
1.488,0.37059418058798865
1.49,0.5701197983462225
1.492,0.7049113158996899
1.494,0.7486349046105261
1.496,0.799676838183085
1.498,0.7922718567500023
1.5,0.996143199761514
1.502,1.0039032275541855
1.504,1.0115524447197437
1.506,1.0302912546186629
1.508,0.7373693873501292
1.51,0.9033466291201346
1.512,0.31906980978726424
1.514,0.44097575484766754
1.516,0.33900469599087685
1.518,0.22429184514826989
1.52,0.061047425357522736
1.522,-0.2602903086003525
1.524,0.059261255556993284
1.526,-0.20774862265309113
1.528,-0.3773509384231628
1.53,-0.06113384021643306
1.532,-0.1016614035710044
1.534,-0.17567335153119185
1.536,-0.21625382839442242
1.538,-0.24752555667605075
1.54,0.015062132525921411
1.542,-0.0635269699163724
1.544,0.08927076127170966
1.546,-0.03892859871342464
1.548,0.021294272779660214
1.55,0.0669460851795743
1.552,-0.014197096642590673
1.554,0.10099994935321385
1.556,-0.09457688405373399
1.558,0.09000138077215859
1.56,0.08781194158944448
1.562,-0.04301845708026777
1.564,-0.02098229338772384
1.566,0.059699851390409786
1.568,0.04976021038684973
1.57,0.05279983386206712
1.572,0.04455353888617863
1.574,0.10801704939238417
1.576,0.036510673737461606
1.578,0.18725330903585805
1.58,0.012399269217652826
1.582,0.06123479386459136
1.584,-0.07129342479753592
1.586,-0.07020134111806337
1.588,0.03712020689543217
1.59,0.061674683016071506
1.592,-0.10005575004468549
1.594,0.05926859728546833
1.596,0.14882315772187554
1.598,-0.1721209607641429
1.6,0.0038687403055063345
1.602,-0.15042220799884523
1.604,-0.02565353298780863
1.606,0.021030178976583238
1.608,0.08617995003906134
1.61,0.05048291440580606
1.612,0.1113055680601461
1.614,0.1340205435589511
1.616,0.06313712640309625
1.618,-0.019701648951419348
1.62,-0.1139089784966858
1.622,0.10830461429264375
1.624,0.11873266841481392
1.6260000000000001,-0.08694682076066965
1.6280000000000001,0.10122326078500146
1.6300000000000001,0.12473596236197429
1.6320000000000001,-0.09677626686066489
1.6340000000000001,0.09042888935918394
1.6360000000000001,0.21011667357545039
1.6380000000000001,0.19896441486213107
1.6400000000000001,-0.006913905339384019
1.6420000000000001,0.14064346937383798
1.6440000000000001,0.2832199989238288
1.6460000000000001,0.19357758790655813
1.6480000000000001,0.16552125660077147
1.6500000000000001,0.04834658092966487
1.6520000000000001,0.01315286749054223
1.6540000000000001,0.3093609585906882
1.6560000000000001,0.07194735043324435
1.6580000000000001,0.09224085645446244
1.6600000000000001,0.19587797950010022
1.6620000000000001,0.16107131323425078
1.6640000000000001,0.28931432535804713
1.666,0.11271262047398789
1.668,0.20616104774064836
1.67,0.19679551887607225
1.672,0.21107835172355016
1.674,0.4113597459532873
1.676,0.30525199248657925
1.678,0.2797106024411542
1.68,0.17338252718321387
1.682,0.3226135379684025
1.684,0.33289381041092425
1.686,0.24272398382522176
1.688,0.3616720889248782
1.69,0.3194314856564585
1.692,0.31432601600433396
1.694,0.3999753359633667
1.696,0.2784280302307037
1.698,0.3663561671800659
1.7,0.365953324765976
1.702,0.4659415759322152
1.704,0.39581640216057234
1.706,0.3429837808778199
1.708,0.30736025462137395
1.71,0.42181668743433787
1.712,0.4573487342412649
1.714,0.23083714929011806
1.716,0.3345848942092631
1.718,0.32149405720559043
1.72,0.33060305584900296
1.722,0.36437793082478653
1.724,0.4475144082954624
1.726,0.4153003753172898
1.728,0.3575019526029449
1.73,0.07528712596869169
1.732,0.04374731596355888
1.734,0.48116915960177387
1.736,0.208949998731876
1.738,0.2851019544219951
1.74,0.1669061674327983
1.742,0.28433239481970585
1.744,0.17452031419848948
1.746,0.18021640214369164
1.748,0.1832034635017872
1.75,0.36220014316370786
1.752,-0.041230112103513794
1.754,0.34263420462254734
1.756,0.06058188394406798
1.758,0.029838696912037374
1.76,0.18879838728051918
1.762,0.1263937714584649
1.764,0.10296484956932081
1.766,0.14295968291811026
1.768,0.18327177942791983
1.77,0.2944521355013429
1.772,0.02840749727512703
1.774,-0.027839854267598857
1.776,0.030494200239302584
1.778,-0.031447992205944214
1.78,0.11253364686770312
1.782,0.027670933023734287
1.784,-0.07383816888641587
1.786,0.11676297924009585
1.788,0.05676101790731681
1.79,-0.0010140720663675377
1.792,0.01631678265727008
1.794,0.04622211064563653
1.796,-0.08701903099794142
1.798,-0.02430460308228995
1.8,0.10648635258582125
1.802,0.03859483423243411
1.804,-0.05469059198593755
1.806,-0.06350140087555399
1.808,0.1210938078205501
1.81,0.03666379654220454
1.812,-0.09812737006996602
1.814,-0.024605819998095253
1.816,0.12031703214517046
1.818,0.06608796809051921
1.82,0.059266022566746464
1.822,-0.15195570057675772
1.824,0.17226121391068228
1.826,-0.1331062070604236
1.828,-0.15209915332676063
1.83,-0.19128426159090295
1.832,-0.033144102375821785
1.834,0.041908921834667635
1.836,-0.034466733698718596
1.838,-0.13875574864360085
1.84,0.1032026435125568
1.842,0.10411121753666629
1.844,-0.06833525346073373
1.846,0.13251240311990722
1.848,0.13855095525617686
1.85,0.05028870075659381
1.852,0.00226931875886506
1.854,-0.051187196708493754
1.856,0.011608263621908059
1.858,0.08513965810961385
1.86,-0.0014323723113002958
1.862,0.10234843640561449
1.864,-0.02280976705638938
1.866,0.1063358764190059
1.868,0.10878196580365652
1.87,-0.07183545314699892
1.872,0.24868440637737632
1.874,0.07446308880684675
1.8760000000000001,-0.09962698172632439
1.8780000000000001,0.027992090107856853
1.8800000000000001,-0.13597225410112213
1.8820000000000001,0.14499468266952115
1.8840000000000001,-0.06823458721445726
1.8860000000000001,-0.06945962754220593
1.8880000000000001,0.04234532021718205
1.8900000000000001,0.14085309898028622
1.8920000000000001,0.09451025925587561
1.8940000000000001,-0.04076629126824887
1.8960000000000001,0.03594489459350604
1.8980000000000001,0.019962772406060272
1.9000000000000001,0.014316957739566595
1.9020000000000001,-0.04310576889370873
1.9040000000000001,-0.036370570631643936
1.9060000000000001,0.011145063169199125
1.9080000000000001,0.08984474796267573
1.9100000000000001,-0.09890570566364532
1.9120000000000001,-0.06225071484240672
1.9140000000000001,-0.012939529814602455
1.9160000000000001,0.015174753893250292
1.9180000000000001,-0.058941912651522724
1.92,0.10502898446319082
1.922,0.0009963583568702126
1.924,0.04847926818788074
1.926,0.07231100299602894
1.928,0.15950028876030284
1.93,-0.049967329500071433
1.932,-0.09049379652944677
1.934,-0.042158470642019816
1.936,0.19053356100047475
1.938,0.017667136661930767
1.94,-0.1383389147225529
1.942,-0.01854999419346083
1.944,-0.18414226121977054
1.946,0.04024149402329587
1.948,-0.07004873712215832
1.95,-0.29824749641969633
1.952,-0.13011379632519907
1.954,-0.010046475829729276
1.956,-0.13479446746384785
1.958,0.10730016360727687
1.96,-0.09327710963127578
1.962,0.09602379095314054
1.964,0.3895289507586635
1.966,0.23469552105321226
1.968,-0.18587105131122034
1.97,0.09857050272349638
1.972,0.2344815890117459
1.974,0.10372640075576685
1.976,-0.015252254916761025
1.978,-0.06268454387762981
1.98,0.06326459822394455
1.982,0.1441755610578967
1.984,-0.054502011887968015
1.986,0.07419530158848384
1.988,0.051150563531504226
1.99,-0.03824127764151695
1.992,0.05462014215077161
1.994,0.08698056400164803
1.996,-0.007031380470426498
1.998,0.13473606448976413
2.0,0.004764232667181207
2.0020000000000002,0.10140015356983222
2.004,0.051653437776224366
2.0060000000000002,-0.0533140784330975
2.008,0.17323884398940564
2.0100000000000002,0.0794655854791259
2.012,0.1978822148073386
2.0140000000000002,-0.059648681853528354
2.016,0.05430859614463081
2.0180000000000002,0.12820434691006516
2.02,-0.008279912292947986
2.0220000000000002,-0.2662050412338209
2.024,0.11028974968574878
2.0260000000000002,0.055975389179770976
2.028,0.18942705413119537
2.0300000000000002,-0.25435133319247566
2.032,-0.04671506643917201
2.0340000000000003,-0.08087144473799533
2.036,0.2248073039928119
2.0380000000000003,0.00888926228258973
2.04,0.16249653369015826
2.0420000000000003,-0.0005648126654652624
2.044,0.05262625955100815
2.0460000000000003,0.12281653196749587
2.048,0.02334312340865047
2.05,-0.106370292592884
2.052,-0.11164884379836335
2.054,0.05881971008823963
2.056,0.20912004901006404
2.058,0.17981870603451794
2.06,0.20001983910040436
2.062,0.005050417155815751
2.064,0.1703169388145794
2.066,-0.02194294397603061
2.068,0.0894529729394147
2.07,0.12292379093366636
2.072,0.3157930850256704
2.074,0.24701686787058796
2.076,0.30585951507907433
2.078,0.024186719346337926
2.08,0.2778425620161216
2.082,0.3219101337704142
2.084,0.07378509150341891
2.086,0.564598331127196
2.088,0.03359475845972665
2.09,0.14672150158766392
2.092,0.24546484035103067
2.094,0.13418455180074954
2.096,0.17200396795999875
2.098,0.23033337344290195
2.1,0.24808653580438167
2.102,0.33031256725501673
2.104,0.18661149672457303
2.106,0.06950618499928095
2.108,0.19232872949334615
2.11,0.050340178676800226
2.112,0.09604332240120098
2.114,0.09942784796243527
2.116,0.2259092424201904
2.118,0.20612405243592788
2.12,0.014771858122775344
2.122,0.09825521100639852
2.124,-0.036023528880581135
2.126,-0.02651726978570644
2.128,0.034128075118166845
2.13,-0.08576372208031852
2.132,0.07502354810441175
2.134,-0.03689254822275614
2.136,0.015440664455457977
2.138,-0.04531405347933528
2.14,-0.028137676154936165
2.142,0.003676147478249991
2.144,-0.13873681538848728
2.146,0.10675752612378044
2.148,-0.050109960212796956
2.15,-0.10701544739558201
2.152,-0.010492132405630478
2.154,0.13833564868233283
2.156,-0.16269659375001297
2.158,0.013236302185784487
2.16,-0.04402017277678345
2.162,0.019132047572026814
2.164,0.1677592921401042
2.166,0.03579320267127119
2.168,-0.0042386559328772165
2.17,0.036023093854346135
2.172,0.08958961464471236
2.174,0.06604506645039471
2.176,-0.03437607677728094
2.178,-0.14304313335443747
2.18,0.20505285303560827
2.182,-0.205550654264425
2.184,-0.01796267499084186
2.186,0.07965058096919192
2.188,0.028732541962736436
2.19,0.03128101916867876
2.192,-0.058804148703246496
2.194,-0.07067314166329002
2.196,0.04549200697371179
2.198,-0.06694256214182685
2.2,0.04879279587088766
2.202,0.09275007860862888
2.204,-0.055790873279644645
2.206,-0.1374159680943223
2.208,0.029133238443089515
2.21,-0.0496695561394238
2.212,-0.10334395793414512
2.214,-0.11569112962180347
2.216,-0.028894719260307657
2.218,-0.20297761328227665
2.22,-0.11163659041972038
2.222,0.06329597242507631
2.224,-0.033724064060251996
2.226,-0.03820828954189805
2.228,0.04434973567982124
2.23,-0.08891490179086653
2.232,0.18377744141571895
2.234,0.1864186614522917
2.236,0.48237409931189673
2.238,0.3592328336783965
2.24,0.6452927103714685
2.242,0.8317182704114953
2.244,0.8359463053550581
2.246,0.9093620049462765
2.248,0.9745834601240915
2.25,1.0965697710999356
2.2520000000000002,1.0231209319141832
2.254,1.2031893075865228
2.2560000000000002,0.5791770306329125
2.258,0.6670801060671238
2.2600000000000002,0.662246819610018
2.262,0.26136417687302954
2.2640000000000002,0.45818117518237433
2.266,0.2565963873060228
2.2680000000000002,0.30386254876734753
2.27,-0.006835771673295832
2.2720000000000002,-0.1182766883433922
2.274,-0.09070866906089212
2.2760000000000002,-0.24733855656681025
2.278,-0.2482475328662965
2.2800000000000002,-0.07528779113381479
2.282,-0.17302530100801722
2.2840000000000003,-0.20813133850932453
2.286,-0.1744166620876549
2.2880000000000003,-0.10116576791287951
2.29,0.11515196072969029
2.2920000000000003,-0.029600977956125086
2.294,0.02915234040843369
2.2960000000000003,-0.08110963367746808
2.298,-0.10548271991293427
2.3000000000000003,0.1505650398641728
2.302,-0.10754279877553315
2.3040000000000003,0.07163657052690098
2.306,-0.05714082695584589
2.308,-0.0036168666618004563
2.31,0.08517262349031993
2.312,-0.02876152817130613
2.314,-0.020438999522101948
2.316,-0.07480773979249074
2.318,-0.06748137731156209
2.32,-0.11060306814952346
2.322,0.041516025023190725
2.324,-0.12928588480723222
2.326,0.15520919163809868
2.328,0.01112322492637551
2.33,0.051076747123138026
2.332,0.14199580605156176
2.334,0.03907843700089419
2.336,-0.031631433902152326
2.338,0.1514696869358417
2.34,-0.06841962861451666
2.342,0.0023031369521904045
2.344,-0.22723797584438135
2.346,-0.04695347738595688
2.348,0.015620776046983462
2.35,-0.2081539380822661
2.352,-0.08252260171392954
2.354,0.06313357359469873
2.356,0.059743761759089825
2.358,0.2893587041558847
2.36,0.012907102484432269
2.362,0.009001551430446456
2.364,-0.12983398994373205
2.366,0.08752160420513305
2.368,0.03622651739485407
2.37,0.07724239789580387
2.372,0.2024143391889834
2.374,0.08543062096209447
2.376,0.10266572545074486
2.378,-0.0043682660672818285
2.38,-0.019991741803312757
2.382,0.17531918638165278
2.384,0.057426207881329815
2.386,0.08746009622769084
2.388,0.2522249186946522
2.39,-0.04341049145731932
2.392,0.13776407858992126
2.394,0.10710077098594604
2.396,0.2496183021966977
2.398,0.11167463467095734
2.4,0.20499547076881108
2.402,0.30340200136188905
2.404,0.28722610141025606
2.406,0.22803926922194495
2.408,0.08777105120132606
2.41,-0.0836042730352482
2.412,0.09474152716823908
2.414,0.21932895262229618
2.416,0.09488096553880565
2.418,0.18864958344007576
2.42,0.31807591242240707
2.422,0.07184704221192545
2.424,0.16591533690462557
2.426,0.31319332870730743
2.428,0.3423730785655052
2.43,0.0830980695128399
2.432,0.2857564609877449
2.434,0.24603330734634382
2.436,0.30928284459203964
2.438,0.23944627495956422
2.44,0.39842239178324046
2.442,0.531235978647538
2.444,0.22837478517485282
2.446,0.3300962484154129
2.448,0.22224176848340285
2.45,0.3692747189432023
2.452,0.3176490714491342
2.454,0.22710842265998382
2.456,0.21468545865996536
2.458,0.3302634668093104
2.46,0.4049946838381521
2.462,0.2100861147592606
2.464,0.4441614860141854
2.466,0.3663914422971336
2.468,0.2516442470844613
2.47,0.24824693588234922
2.472,0.1652938030241719
2.474,0.1968128014922011
2.476,0.18317640436873495
2.478,0.3650837907837012
2.48,0.33288084001180385
2.482,0.269615224582879
2.484,0.40466167535619146
2.486,0.11979193499470578
2.488,0.2462773787215172
2.49,0.23342416911669733
2.492,0.20977427448250988
2.494,0.3745213227548343
2.496,0.05446792431774333
2.498,-0.028979954339196562
2.5,-0.001460731367446233
2.5020000000000002,0.10357024695388153
2.504,0.20475774365760555
2.5060000000000002,0.18082824993820068
2.508,0.09249872170997879
2.5100000000000002,-0.01626440335106813
2.512,0.1695185021105009
2.5140000000000002,0.21667749288052252
2.516,-0.12370442739542516
2.5180000000000002,0.011379623604789224
2.52,0.135377751489037
2.5220000000000002,0.09075150156189923
2.524,0.01589292247225453
2.5260000000000002,-0.01204702498341792
2.528,0.0571517590351054
2.5300000000000002,0.029991794948647458
2.532,-0.1102729548188693
2.5340000000000003,-0.0485869942563981
2.536,-0.19341610462312214
2.5380000000000003,0.13534828891302522
2.54,-0.06169847726244731
2.5420000000000003,-0.08394726179948464
2.544,-0.11973703473140268
2.5460000000000003,-0.009959148235104163
2.548,0.14557970663458678
2.5500000000000003,-0.051737876079283276
2.552,-0.07462770921549926
2.5540000000000003,0.038697339951051665
2.556,-0.041162144645051996
2.5580000000000003,-0.13525272527473503
2.56,-0.07417243204228935
2.562,-0.08331285534592024
2.564,0.03526293594113865
2.566,-0.04918042279672642
2.568,-0.1805621025677767
2.57,0.043368161690877025
2.572,0.06345187166227123
2.574,0.0024469770149941217
2.576,-0.1738485527039419
2.578,0.06478506831192586
2.58,0.034104293265077676
2.582,-0.10926613382165055
2.584,0.07271439225541391
2.586,0.09605033258784884
2.588,-0.08856869182551992
2.59,0.034179451656514086
2.592,0.16046559902497953
2.594,0.021683966239256405
2.596,-0.12682337882127565
2.598,0.00955209769123335
2.6,0.01679409676271979
2.602,0.11499503679271171
2.604,0.15208394716598092
2.606,0.05516583600849123
2.608,-0.08071648820133046
2.61,-0.16219133619476148
2.612,0.106284498470629
2.614,-0.0522107094189473
2.616,0.07603912395242729
2.618,0.10519586354848924
2.62,-0.07427923088612319
2.622,0.003890460125351513
2.624,-0.011236019049409813
2.626,0.11673612719348939
2.628,-0.12616883397230608
2.63,0.1402118900937829
2.632,0.13353079766881057
2.634,0.20281255572036636
2.636,0.1904582944635074
2.638,-0.10972164838714579
2.64,0.06978167960841006
2.642,0.07725441167324416
2.644,0.19156770608851764
2.646,0.033225881688838596
2.648,0.058676033707975084
2.65,-0.11580303220127663
2.652,-0.0815535237692854
2.654,0.02544029137414929
2.656,-0.16830217087196075
2.658,0.03781724941243639
2.66,-0.04158524256852964
2.662,-0.01995103937758143
2.664,-0.06937029002696578
2.666,0.09328260983742989
2.668,0.07630523660628794
2.67,0.0010155701115282794
2.672,-0.09622721908906091
2.674,0.11002568727900192
2.676,0.02796244516265903
2.678,-0.0016500014671752316
2.68,0.21756868640581062
2.682,-0.05267108575634392
2.684,-0.14132507707612316
2.686,0.0515297807823117
2.688,-0.049892188354815764
2.69,0.06054583581326008
2.692,-0.031011857629892395
2.694,0.042600181595042044
2.696,0.07268222382646244
2.698,-0.03689214609851314
2.7,0.002409587793462301
2.702,-0.1087949458932297
2.704,0.06599011227532582
2.706,0.12090447149792191
2.708,0.014529437912728203
2.71,0.09783245134810344
2.712,0.02207006194048653
2.714,0.0264586793169933
2.716,0.05348605664331298
2.718,-0.022415034929532538
2.72,0.10497144851321044
2.722,0.1152023903323017
2.724,0.1690701208066853
2.726,0.14128190501628068
2.728,0.12378158237954547
2.73,0.20512733619157836
2.732,0.0013887838255273511
2.734,0.030351108390696796
2.736,0.08693338592523517
2.738,-0.22899371962483028
2.74,-0.01876755061251121
2.742,-0.14629887487974294
2.744,0.21858275835393146
2.746,-0.06614726072396905
2.748,0.13081855590488514
2.75,-0.011241523034349315
2.7520000000000002,-0.049130765817910545
2.754,-0.14412029570445262
2.7560000000000002,-0.021444640299247437
2.758,-0.07669514161192494
2.7600000000000002,-0.06641608736201828
2.762,-0.12185744456689752
2.7640000000000002,-0.10986008737663888
2.766,0.013074626374500057
2.7680000000000002,0.01984402288497912
2.77,0.05738744253439882
2.7720000000000002,0.00828143743674278
2.774,0.14473914827520226
2.7760000000000002,-0.18594834355838796
2.778,0.14578871884825098
2.7800000000000002,0.015337419610704733
2.782,0.06933846598496192
2.7840000000000003,0.1001571700386067
2.786,-0.06852939623581618
2.7880000000000003,-0.03531245277380313
2.79,0.06109660921809685
2.7920000000000003,-0.06157446451827903
2.794,0.03639788388597176
2.7960000000000003,0.024210863876631947
2.798,-0.053902696463828004
2.8000000000000003,-0.05786177465310835
2.802,0.012698321206135878
2.8040000000000003,0.13327865531845662
2.806,0.013827116799187453
2.8080000000000003,0.10492985620173118
2.81,0.05586034190361602
2.8120000000000003,0.19882402557765017
2.814,-0.015979288025516195
2.816,0.27154489384682934
2.818,-0.06809626547458825
2.82,0.04000261151584106
2.822,0.276652010485462
2.824,0.02118559975656159
2.826,0.21419620590461436
2.828,0.25112814386458093
2.83,0.3813713851256667
2.832,0.29512037890593645
2.834,0.14412267768330986
2.836,0.24349016931768117
2.838,0.11257106025243768
2.84,0.24597816698368588
2.842,0.11698828054801333
2.844,0.28017389345581944
2.846,0.15744400189181992
2.848,0.033718920769944316
2.85,0.22500097792945692
2.852,0.29874329622411344
2.854,0.020365245882000754
2.856,0.12614557375361718
2.858,0.276952545323042
2.86,0.15295989134890112
2.862,0.3510641414235202
2.864,-0.08505549471653345
2.866,0.18068799839171223
2.868,0.17244371628185123
2.87,0.04045667283429813
2.872,-0.010706330868021904
2.874,0.059431504145428526
2.876,0.10744838005406084
2.878,0.07047786650878737
2.88,-0.04008297168201639
2.882,0.02690771412910817
2.884,-0.04647739802203841
2.886,0.03171417789842855
2.888,0.05785261766309288
2.89,-0.03608379444036368
2.892,0.1805448189485094
2.894,-0.12101617788747046
2.896,0.04157882656851185
2.898,-0.18928266894906115
2.9,-0.21213546379686396
2.902,0.1132245302668077
2.904,0.1646534203318262
2.906,-0.17236562158164626
2.908,0.12438620519619803
2.91,0.03951158691191083
2.912,0.21326374770397122
2.914,-0.06995625015656025
2.916,0.23727820123372817
2.918,-0.11035357724913157
2.92,0.10992610299729569
2.922,0.021965687556966294
2.924,-0.1944201890198124
2.926,-0.04945208479903148
2.928,0.07251338906241284
2.93,0.10015482254014858
2.932,0.03342633029077078
2.934,-0.023275204638316973
2.936,-0.14982601142217203
2.938,-0.19047559705065553
2.94,-0.08625780632642938
2.942,0.05630993555102818
2.944,0.2160369648116356
2.946,0.021519011872973465
2.948,-0.002556010340441681
2.95,0.020040513440512036
2.952,-0.002746461234426728
2.954,0.061249024570086096
2.956,0.08893763664337245
2.958,-0.01812278612757915
2.96,-9.636402848851492e-06
2.962,0.008137850563936164
2.964,-0.06497704043152941
2.966,-0.029699523272876907
2.968,-0.18163152727149837
2.97,-0.12091209867449527
2.972,0.013366060564703103
2.974,0.2248899805867938
2.976,-0.013891762072340705
2.978,-0.009370751489950428
2.98,0.088974132360525
2.982,0.23305335906594213
2.984,0.08255605614288669
2.986,0.25486594949519376
2.988,0.38853546727803295
2.99,0.5220597303781718
2.992,0.7121220759619475
2.994,0.8398660381085737
2.996,1.0446766754482133
2.998,0.9996245393682821
3.0,0.9660647773691722
3.0020000000000002,1.0016148015072317
3.004,0.8350995256811815
3.0060000000000002,0.6460349029779294
3.008,0.7713298378686851
3.0100000000000002,0.5148514238156086
3.012,0.40165546862693424
3.0140000000000002,0.31824416197501165
3.016,0.3004093804235709
3.0180000000000002,0.14296566367314617
3.02,-0.09750276332556881
3.0220000000000002,-0.03805227480643006
3.024,0.08241352232317338
3.0260000000000002,-0.12969954028608813
3.028,0.10369187056621626
3.0300000000000002,-0.1752837918858511
3.032,-0.07546289851800918
3.0340000000000003,-0.13313967065503152
3.036,-0.15170799592754958
3.0380000000000003,-0.086896561406232
3.04,-0.06498631729071361
3.0420000000000003,-0.11953375347967976
3.044,0.1798606290422582
3.0460000000000003,0.03161276203614249
3.048,-0.08929473101884325
3.0500000000000003,-0.15162884805767796
3.052,0.03189149818518521
3.0540000000000003,0.11388942108471667
3.056,0.2003041606620006
3.0580000000000003,0.12540608961811045
3.06,-0.0650626703039754
3.0620000000000003,-0.07770393841545625
3.064,0.26115500036237876
3.0660000000000003,0.024026913664433068
3.068,-0.1380904235559429
3.0700000000000003,-0.1337700535837949
3.072,-0.0429543550219247
3.074,-0.10894509318636436
3.076,-0.02778550798283019
3.078,-0.1408274420681157
3.08,-0.007126469017481123
3.082,0.11163567015806142
3.084,-0.06345392414359356
3.086,0.23150382845590584
3.088,0.1295290284435843
3.09,0.16591640772414376
3.092,0.1616015304998473
3.094,0.023604831023327767
3.096,0.17750121795277005
3.098,0.047942130212003095
3.1,0.04529528067698334
3.102,-0.12277342163774255
3.104,0.13477113977960206
3.106,-0.1745118173042093
3.108,-0.09026671570850332
3.11,-0.07235485809855324
3.112,0.15706716832454173
3.114,0.08661573633064734
3.116,0.07332095234413566
3.118,0.03078150958552767
3.12,-0.08540064029425895
3.122,0.1241523605148098
3.124,0.10703486767231635
3.126,-0.08164192932795925
3.128,-0.06913071660510206
3.13,0.17714583029565178
3.132,-0.03112349481669191
3.134,-0.051354963841569054
3.136,0.025238112526880005
3.138,0.2559008315976217
3.14,0.11456353843197044
3.142,0.07565089958206137
3.144,-0.13553458774524313
3.146,0.022310869591620458
3.148,0.2726226659481339
3.15,0.12031218663203955
3.152,-0.028823500310231537
3.154,0.2476925724413268
3.156,0.06884073189170145
3.158,0.2650022184384016
3.16,0.35081510884968076
3.162,0.12362480214299144
3.164,0.24305544571011117
3.166,0.456885104128033
3.168,0.2464460280827725
3.17,0.23372132962287676
3.172,0.23638798951573525
3.174,0.3126266521552605
3.176,0.40078315753522464
3.178,0.2939944306599648
3.18,0.2971469121151897
3.182,0.2783658504857846
3.184,0.47954837776188464
3.186,0.24312163863459368
3.188,0.5098242356682697
3.19,0.1795057453928014
3.192,0.45977957782040385
3.194,0.4471246507291131
3.196,0.21717937510288132
3.198,0.2847541455069851
3.2,0.3635715953881561
3.202,0.27180009710223796
3.204,0.4648277839849422
3.206,0.3309258116175887
3.208,0.27822132122046817
3.21,0.07011087534409277
3.212,0.2169282956145954
3.214,0.19877317744181056
3.216,0.3446177835210584
3.218,0.4655415886234428
3.22,0.43892185684890384
3.222,0.4156289127661147
3.224,0.2584800555468945
3.226,0.20418304820044914
3.228,0.42214320908254
3.23,0.3509426153853692
3.232,0.3236075464454319
3.234,0.16052794452812352
3.236,0.2738557268333409
3.238,0.15853261766401425
3.24,0.10663433726830368
3.242,0.11315798941692798
3.244,0.2828831267361184
3.246,-0.06731487744871281
3.248,0.06291223992663525
3.25,0.12710320338480993
3.2520000000000002,0.3140294566587426
3.254,0.30467372819518485
3.2560000000000002,0.11619569455206871
3.258,0.042073279815383655
3.2600000000000002,0.1948991429555686
3.262,0.15095836740483778
3.2640000000000002,0.1951751472274798
3.266,0.08609623742440758
3.2680000000000002,0.22469114902831383
3.27,-0.018936533832238006
3.2720000000000002,-0.03383186651167172
3.274,0.1485570914168984
3.2760000000000002,0.0864655126822478
3.278,0.18707473243352482
3.2800000000000002,-0.06952870606609071
3.282,-0.07695487934152768
3.2840000000000003,0.16483356674071253
3.286,0.10658568917343697
3.2880000000000003,0.0879069041621008
3.29,-0.011582199635925446
3.2920000000000003,0.05722638108780331
3.294,-0.10565750553837747
3.2960000000000003,-0.01847953306981465
3.298,-0.17322681707751322
3.3000000000000003,0.15140651939986838
3.302,0.17087886739883773
3.3040000000000003,-0.09063616403878398
3.306,-0.17336387173443435
3.3080000000000003,0.05067402191998745
3.31,-0.029430773971956994
3.3120000000000003,0.011164254976803954
3.314,0.02731653291519891
3.3160000000000003,-0.17352033516235732
3.318,0.029333753840614183
3.3200000000000003,-0.01238147099526726
3.322,0.025714413986126027
3.3240000000000003,-0.007558111550207964
3.326,0.0784222688708933
3.3280000000000003,-0.011132439158863323
3.33,0.09345655320073099
3.332,-0.003419761698560217
3.334,0.05399073410394584
3.336,-0.005886210488354274
3.338,-0.10056218273972055
3.34,0.18649861735595794
3.342,0.04673005123178999
3.344,0.03851195694349384
3.346,0.003695368292667362
3.348,0.15258462036222833
3.35,0.08183476945164979
3.352,-0.019120756241058526
3.354,-0.09976596436793439
3.356,-0.13621695832566888
3.358,-0.25551385186279363
3.36,0.04464821324518083
3.362,0.18953053921319948
3.364,0.016521636259540683
3.366,0.21036447892061552
3.368,-0.1641241164736328
3.37,0.051714305506636235
3.372,-0.05552436388941828
3.374,-0.027134696432078383
3.376,0.05647828754205698
3.378,-0.013422242015867978
3.38,-0.04943434670972285
3.382,0.061495519911953365
3.384,0.096339814736013
3.386,-0.0033592517432669104
3.388,0.12864304135472393
3.39,-0.05554678136352446
3.392,0.019634754849891543
3.394,-0.08996965602720677
3.396,0.15187756708905356
3.398,0.07822981729786725
3.4,-0.10879300547770383
3.402,-0.03355443951328501
3.404,0.1429163885601857
3.406,0.12580753447979945
3.408,-0.2192089622880711
3.41,0.06580850559796825
3.412,0.18772066842639684
3.414,0.0601712216124346
3.416,-0.07949678444356817
3.418,-0.0006444993542834207
3.42,0.10845676355154425
3.422,0.11248589647071071
3.424,0.1781845952989355
3.426,0.014676979684118475
3.428,0.030491493007793375
3.43,0.07899030095088844
3.432,0.05658774163679955
3.434,-0.04053823255210171
3.436,-0.04514553261151827
3.438,-0.09410219252906817
3.44,0.03861883032045546
3.442,0.02106934936812264
3.444,-0.05846304431313966
3.446,0.07653571445194435
3.448,-0.07203626480679005
3.45,0.04085546239200836
3.452,-0.04379775789428291
3.454,-0.031017221760499012
3.456,0.13915417558136162
3.458,-0.004571302136648944
3.46,0.15576871618773278
3.462,-0.13068620356495808
3.464,-0.1565871268252197
3.466,0.09176854998338609
3.468,0.07768863752585849
3.47,-0.07492539340319139
3.472,-0.06832335787614272
3.474,0.004126724872889503
3.476,-0.0445072662053549
3.478,-0.04419803676093021
3.48,0.054798052807609215
3.482,-0.0007867834814988626
3.484,-0.02695737582792306
3.486,0.16209818677245383
3.488,0.00991156546774665
3.49,-0.026038064709165958
3.492,-0.006831982895360829
3.494,0.109612055140443
3.496,-0.04536884838620069
3.498,-0.1356744535287952
3.5,0.024419539815621328
3.5020000000000002,-0.08303060811403738
3.504,0.0991919104224447
3.5060000000000002,-0.008126460450662907
3.508,-0.10115100339966071
3.5100000000000002,0.10074495234900806
3.512,-0.09305437028963431
3.5140000000000002,0.02968270886434839
3.516,-0.0014115884234013228
3.5180000000000002,-0.14898168278786816
3.52,0.1074082388420848
3.5220000000000002,-0.06889924453456851
3.524,-0.19067826298043417
3.5260000000000002,0.014073033192299772
3.528,0.03975780563832065
3.5300000000000002,-0.04589392781659909
3.532,-0.001372722310879182
3.5340000000000003,0.017501921904116324
3.536,0.032774944960416406
3.5380000000000003,-0.14870891025273117
3.54,0.028315132694993098
3.5420000000000003,0.04433206308697852
3.544,0.02456744077334696
3.5460000000000003,-0.08123210079069136
3.548,-0.0001364456483067336
3.5500000000000003,0.20125533366184126
3.552,-0.009635968301198325
3.5540000000000003,-0.09681983137487937
3.556,-0.040131976631236535
3.5580000000000003,-0.11254454216855073
3.56,0.11576866865353053
3.5620000000000003,0.11249794627352762
3.564,0.1505315054728526
3.5660000000000003,0.07634283083398279
3.568,0.1987219390549075
3.5700000000000003,0.1936546860658956
3.572,0.10044785270421834
3.5740000000000003,0.00629928715618755
3.576,0.15328112492208745
3.5780000000000003,0.19321112700537224
3.58,0.23991135771274297
3.5820000000000003,0.23890327502051695
3.584,0.1450413454321482
3.586,0.016385678854564184
3.588,0.19301488313691478
3.59,0.24567480963924257
3.592,0.13265347717812775
3.594,0.21634544433425074
3.596,0.22735442507881157
3.598,0.1510334585111302
3.6,0.413121256978248
3.602,0.18599506077950265
3.604,0.2908936238219239
3.606,0.12968215196408234
3.608,0.1404470400363239
3.61,0.29643006178706754
3.612,0.18117094630229486
3.614,-0.1072108778177508
3.616,-0.032687943886535856
3.618,0.07573903687920523
3.62,0.055442305026112734
3.622,-0.03926239161542007
3.624,-0.04566950929700654
3.626,-0.0049337052826345165
3.628,0.13360434570008234
3.63,0.03754099148855711
3.632,-0.05893982229052621
3.634,-0.1700609044464565
3.636,0.09373096927153021
3.638,0.07506764055859842
3.64,0.08554922569821889
3.642,0.16919389718936204
3.644,-0.08609562613943543
3.646,0.07398103431699399
3.648,-0.106259852400925
3.65,0.008913336061169855
3.652,0.11797458668914933
3.654,-0.05353112825615038
3.656,-0.009723291244571532
3.658,0.0221979753223526
3.66,0.06235968779113424
3.662,0.030138901955622244
3.664,-0.11294723845560829
3.666,-0.03541859525616031
3.668,-0.008956716428854697
3.67,0.10421824847786985
3.672,-0.05887195350173972
3.674,0.12744870954431609
3.676,0.003188582188442835
3.678,0.08870570000783352
3.68,-0.1260909483050198
3.682,-0.06682606170137538
3.684,0.18575700307752074
3.686,0.11444182061365664
3.688,0.04760404379258882
3.69,0.10755983011261348
3.692,-0.14097616021739598
3.694,-0.1304618911253826
3.696,0.0844888033291939
3.698,-0.05586448672376537
3.7,0.043151260075364094
3.702,0.001074153077337972
3.704,0.1388970665664273
3.706,0.03495456224348612
3.708,-0.03752090022848837
3.71,0.13028361642721462
3.712,0.0377667309394268
3.714,-0.16000241391388828
3.716,0.015135173824504647
3.718,-0.18903644052331836
3.72,-0.26983787566211703
3.722,-0.1336608560564601
3.724,-0.15918367642644693
3.726,-0.15136282992488204
3.728,-0.09582119268584786
3.73,-0.18581337617030783
3.732,0.09668171028622558
3.734,0.20964853551456689
3.736,0.31413300361543095
3.738,0.6628444420186224
3.74,0.45654819391653434
3.742,0.8581816832305432
3.744,0.8679310553069098
3.746,0.8782193392219353
3.748,0.9221314637214819
3.75,0.956246799867881
3.7520000000000002,0.8632000762481509
3.754,0.9137255870502694
3.7560000000000002,0.7368842714140608
3.758,0.7357172193656308
3.7600000000000002,0.5760775806595442
3.762,0.5527719618433937
3.7640000000000002,0.37058605297564695
3.766,0.23587384261102984
3.7680000000000002,0.019280289800553824
3.77,-0.14181447092820235
3.7720000000000002,-0.03830085428091521
3.774,-0.18915556815329837
3.7760000000000002,-0.2503660710053801
3.778,-0.21621445306937798
3.7800000000000002,-0.2393033523830178
3.782,-0.16917370045056151
3.7840000000000003,-0.31402240219180166
3.786,-0.21249085420261674
3.7880000000000003,-0.018719330663686758
3.79,0.003962237535268725
3.7920000000000003,0.009039012278871515
3.794,-0.06414149174639176
3.7960000000000003,-0.09956177801316544
3.798,-0.008901903327942691
3.8000000000000003,-0.04242872496100629
3.802,-0.10902034090567965
3.8040000000000003,-0.09127109825277865
3.806,0.020272384331527404
3.8080000000000003,0.22644161968811458
3.81,0.003932781748317829
3.8120000000000003,0.11181248151434751
3.814,-0.13608918697928032
3.8160000000000003,0.14348204207777532
3.818,-0.09365655196222987
3.8200000000000003,-0.09816821292636882
3.822,-0.021610760011045206
3.8240000000000003,0.03067228341834719
3.826,-0.0723888882559247
3.8280000000000003,-0.035055947679415105
3.83,0.12888354168650992
3.8320000000000003,-0.12839345870812313
3.834,0.0034988141217073485
3.8360000000000003,0.020387352381955447
3.838,-0.022456683182722252
3.84,0.06321785450079329
3.842,-0.21950159831728197
3.844,-0.01538654587840622
3.846,0.13094074827031446
3.848,-0.0178867244384066
3.85,0.014133010987560913
3.852,-0.03486524606306221
3.854,-0.14859121517427631
3.856,0.1816511515343178
3.858,0.03098250626198899
3.86,-0.03004260609853992
3.862,-0.1319012814672782
3.864,0.054618801505180954
3.866,0.013004481582665518
3.868,0.2224923843972845
3.87,0.012613378887618251
3.872,-0.011038814357096964
3.874,-0.029181333184316566
3.876,0.06471506784413789
3.878,0.17443477201046476
3.88,0.13474785492481692
3.882,0.16517803929011665
3.884,0.17203986510355795
3.886,0.1175503673558931
3.888,0.061353799787307664
3.89,0.25859683015881246
3.892,0.009328862313263742
3.894,0.15946316252611875
3.896,0.0987139392088699
3.898,0.14994061572510145
3.9,0.3768456285533986
3.902,0.4603563299751995
3.904,0.41713402651402115
3.906,0.1327632407152767
3.908,0.37015418005414047
3.91,0.2044996687764799
3.912,0.19541352432481554
3.914,0.144457314741341
3.916,0.325811004725825
3.918,0.2484626089678578
3.92,0.2189527679185127
3.922,0.12709763025362134
3.924,0.35915454738283026
3.926,0.18490441607267283
3.928,0.3560915828600925
3.93,0.24300704696316622
3.932,0.3996252655807085
3.934,0.32308771580088774
3.936,0.18845467856206244
3.938,0.4417225760482608
3.94,0.3509104383911304
3.942,0.39888877541947865
3.944,0.23236591244676963
3.946,0.357145494124146
3.948,0.43643469387128364
3.95,0.4285683806892094
3.952,0.2899620136520763
3.954,0.2299910386200381
3.956,0.23315738357672378
3.958,0.4503352764572674
3.96,0.3380450157255196
3.962,0.4969996740532356
3.964,0.28426354930609143
3.966,0.4156660324359987
3.968,0.31090647912382663
3.97,0.15007470877518844
3.972,0.17727827206862573
3.974,0.1559047751281261
3.976,0.20816144342405196
3.978,0.3334736513459162
3.98,0.20451828287819507
3.982,0.32029369906634425
3.984,0.2091050545261277
3.986,0.23737323364016302
3.988,0.3038034844827848
3.99,0.23170064999263987
3.992,0.24056095280747414
3.994,0.05436739295519147
3.996,0.13776937555591942
3.998,0.24811002392009757
4.0,0.1611317272141749
4.002,0.18932275966166986
4.0040000000000004,0.27177075687983215
4.006,-0.022079618193193706
4.008,0.15078083184570107
4.01,-0.01254822949121541
4.0120000000000005,0.041926061925467994
4.014,0.2981733610865099
4.016,-0.03514362402548754
4.018,0.2266601315123096
4.0200000000000005,0.3195212852496798
4.022,0.023886998926315267
4.024,0.18286854680228404
4.026,0.2404607909664114
4.0280000000000005,0.014176046196573172
4.03,-0.10030308264678725
4.032,0.20852743531022372
4.034,0.08617618006447927
4.0360000000000005,0.11961452730423047
4.038,0.08246043086431946
4.04,0.15458645440883548
4.042,0.012399754753118108
4.0440000000000005,0.06316668952348832
4.046,0.17588515556474596
4.048,0.22810683326862252
4.05,0.06823031094295888
4.0520000000000005,0.017030355654190612
4.054,0.052515217160871576
4.056,0.016145107992568984
4.058,0.14426841686823302
4.0600000000000005,0.0022466099762369768
4.062,-0.09640425875420934
4.064,0.0628517410026969
4.066,0.06726784567337209
4.0680000000000005,-0.029889822840973898
4.07,-0.011808160637064614
4.072,0.21486351916993787
4.074,0.13176843525051884
4.0760000000000005,0.04028172675708421
4.078,0.053718150058792
4.08,0.059884701293541946
4.082,0.09348781970396446
4.0840000000000005,0.04740661999630324
4.086,-0.08014821909686205
4.088,0.03390094944079539
4.09,-0.025600994290599612
4.0920000000000005,0.03209680022472441
4.094,-0.09103180812108115
4.096,0.04885863079719132
4.098,-0.008726539149005424
4.1,-0.0238089990658298
4.102,0.013381881119732413
4.104,-0.12384733212472089
4.106,0.06066924794545153
4.108,0.22784777573353887
4.11,-0.1284279918257831
4.112,0.04210437289441855
4.114,-0.010408475397798631
4.116,-0.03181391082706317
4.118,-0.09225145349911375
4.12,-0.06715128885557904
4.122,-0.07277001973569072
4.124,-0.029091613572811557
4.126,0.0015540946857839522
4.128,0.15508156068856524
4.13,-0.0015302385893702975
4.132,0.07212594866596239
4.134,0.04427708514292825
4.136,0.0414222274066261
4.138,-0.1538620220087803
4.14,0.10582916886014687
4.142,0.20989284938701885
4.144,0.09917756754580763
4.146,-0.013719357588661158
4.148,-0.19607923615502318
4.15,-0.17807579557627773
4.152,-0.07031522643083242
4.154,0.016547588310703718
4.156,0.14985729270496104
4.158,-0.037235569606355455
4.16,0.1835318404174723
4.162,0.10891065507479047
4.164,0.09593863021201818
4.166,-0.06923387849515776
4.168,-0.11572821310623885
4.17,0.032196918287430404
4.172,-0.12862598047009088
4.174,0.050075735784128696
4.176,0.04848714532980069
4.178,-0.09254190530921454
4.18,-0.05917460349972852
4.182,0.012454700784744683
4.184,0.12345599663605095
4.186,0.057911554941193114
4.188,0.012379574475083269
4.19,0.11218396604643957
4.192,-0.05148839170392983
4.194,0.10064440350452389
4.196,0.018573218380271022
4.198,0.04930491853297874
4.2,-0.0012377940393731258
4.202,-0.0681078911673715
4.204,0.06541157655305409
4.206,0.11773137371187893
4.208,-0.02594442895768357
4.21,0.029529283253836563
4.212,0.12172416059188368
4.214,0.16377412098692726
4.216,-0.04643565854880966
4.218,-0.004342050981880038
4.22,0.08039787056990445
4.222,-0.10440312975450718
4.224,-0.0028314269112916586
4.226,-0.0646297004956164
4.228,-0.05184632213206307
4.23,-0.015654691504433417
4.232,-0.08183377992797981
4.234,0.14526284004166554
4.236,-0.15025821412853196
4.238,-0.02016792969147359
4.24,0.07412980848177718
4.242,-0.15427351135910752
4.244,-0.13627569473944176
4.246,0.12619185390817178
4.248,-0.10039390380981232
4.25,0.11285266431105152
4.252,-0.027230967983454292
4.2540000000000004,-0.03323015017126091
4.256,-0.13553858344942527
4.258,-0.06386118059507528
4.26,-0.07767575756067466
4.2620000000000005,-0.05441769682760893
4.264,-0.03699096423970006
4.266,0.09306672363168883
4.268,-0.03017465492014886
4.2700000000000005,-0.06252473752601118
4.272,0.014554437790110937
4.274,0.05970175970521842
4.276,0.1123431986166564
4.2780000000000005,-0.010416461553831004
4.28,-0.16140279310220476
4.282,-0.027582377004442212
4.284,0.11868264263182973
4.2860000000000005,-0.18026229086976162
4.288,-0.08727668581461304
4.29,0.03093529206360327
4.292,-0.017342611854554695
4.2940000000000005,-0.040635670005122734
4.296,0.13913311972287673
4.298,0.034967830399910166
4.3,-0.04530772567173685
4.3020000000000005,0.008040161686103373
4.304,0.12907067582744136
4.306,0.11347043818575979
4.308,-0.03454521697776808
4.3100000000000005,0.049936917211925086
4.312,0.012174775602824497
4.314,0.18405843099701685
4.316,0.30646561352844087
4.3180000000000005,0.12169126033932226
4.32,0.22302780307472758
4.322,0.2423612629092059
4.324,0.40578559918589296
4.3260000000000005,0.01570887094475218
4.328,0.27887008193521995
4.33,0.1893250095594835
4.332,0.31279629850247315
4.3340000000000005,0.05245222750381151
4.336,0.1750759416606475
4.338,0.23051998578081084
4.34,0.20431289232998068
4.3420000000000005,0.3048114480311573
4.344,0.2623409930748125
4.346,0.33293341659320647
4.348,0.36379764154579247
4.3500000000000005,0.3346376810135955
4.352,0.39104401164964764
4.354,0.1034521407661064
4.356,0.03516014508599363
4.358,0.3268565053069673
4.36,0.17151491412502706
4.362,0.2713529429324987
4.364,0.10235714171256241
4.366,0.3042338356786641
4.368,0.0670631780603605
4.37,-0.027790074674469215
4.372,0.0745353800929337
4.374,0.08731437366232203
4.376,-0.09813644854054435
4.378,0.07731136509957473
4.38,0.1571449475579131
4.382,-0.07917010049460738
4.384,0.07593971498648264
4.386,0.07018603356843975
4.388,0.0705997225914577
4.39,-0.13387105879949512
4.392,-0.06613234444817649
4.394,0.07151221550629545
4.396,0.10674223577558552
4.398,0.007113133643041502
4.4,-0.038566937239575036
4.402,-0.1663170569924569
4.404,0.0076487304973897365
4.406,0.13222142379158416
4.408,0.005147165821702066
4.41,0.16149089978368478
4.412,0.02410045744787511
4.414,0.018045861570393694
4.416,-0.09789939584728291
4.418,-0.1883113171356461
4.42,0.09461616466621123
4.422,0.1438552864443498
4.424,-0.029704871090538595
4.426,-0.07978097475531885
4.428,0.04523351719608108
4.43,0.0254867254781458
4.432,-0.1461320863278575
4.434,0.04335370064846646
4.436,0.014775604876501366
4.438,0.02918233604939017
4.44,-0.056218612179640214
4.442,0.0460991599674216
4.444,0.05926413702120527
4.446,-0.026557564720060392
4.448,0.0681351718072703
4.45,0.11849370965046674
4.452,-0.024617684582305767
4.454,-0.0416906891314729
4.456,0.02657833264229142
4.458,0.00954611170941459
4.46,-0.067656690148909
4.462,-0.03448718658274182
4.464,0.09336274609558444
4.466,-0.21797218249877803
4.468,-0.02190262765089261
4.47,-0.08660354069996092
4.472,-0.3379372793077169
4.474,0.04255546372588867
4.476,0.027566209290530025
4.478,-0.13266580312284484
4.48,0.3184627688402314
4.482,0.10282513886968486
4.484,0.2776631807914736
4.486,0.5305650780825704
4.488,0.4558218539305038
4.49,0.5060750660100057
4.492,0.46247615025044103
4.494,0.8027717942914283
4.496,0.977218860169286
4.498,0.9179839758106436
4.5,1.0556101838447276
4.502,0.9346669105542814
4.5040000000000004,0.9570680977808028
4.506,0.9236534659152555
4.508,0.7172420329532899
4.51,0.7539107305282364
4.5120000000000005,0.4528772147881192
4.514,0.3592224918341211
4.516,0.29451106018737705
4.518,0.05560405208205124
4.5200000000000005,-0.145974032614934
4.522,-0.03663437374963631
4.524,-0.14600308907107246
4.526,-0.2366091504286784
4.5280000000000005,-0.14304008300739054
4.53,-0.27049099715440034
4.532,-0.07365136822399043
4.534,-0.35412675162969676
4.5360000000000005,0.009981410802166843
4.538,-0.1777835772389923
4.54,0.14644713340984825
4.542,0.018499353874770568
4.5440000000000005,-0.14301995515787172
4.546,0.09087745413478816
4.548,0.11394486275755697
4.55,0.07926842078263491
4.5520000000000005,-0.0875736884230173
4.554,-0.07322580938635104
4.556,-0.30493277739327673
4.558,-0.07274780820082415
4.5600000000000005,-0.08714572980344608
4.562,-0.02028759401498853
4.564,0.0541713186132106
4.566,0.0982425723093324
4.5680000000000005,0.1237680115368332
4.57,-0.07202261437103424
4.572,0.001296714554603319
4.574,-0.07860693686867046
4.5760000000000005,0.008099451691498918
4.578,0.0005146839483456986
4.58,-0.009431933015043668
4.582,0.10754008121301573
4.5840000000000005,-0.1442142439915164
4.586,0.01648704595517959
4.588,-0.11110627635649205
4.59,0.11701522427656902
4.5920000000000005,-0.10847846518370671
4.594,-0.031178722502136658
4.596,0.0388548079491219
4.598,0.04396171710672847
4.6000000000000005,-0.18956007444329187
4.602,0.023046108764993464
4.604,0.17125284475359953
4.606,0.0764269075974679
4.6080000000000005,0.0028931160211487297
4.61,-0.05351111624179817
4.612,-0.05948712744138067
4.614,0.08497154535523332
4.616,0.12549160305842388
4.618,0.1021147008978232
4.62,0.03810381066735962
4.622,0.09719876145321485
4.624,-0.09490197119331399
4.626,0.07730688947544319
4.628,0.199610103075278
4.63,-0.01653749680429273
4.632,0.13140604790822072
4.634,-0.0020285290555181884
4.636,0.1295973685327611
4.638,0.017127077114980335
4.64,0.3633881163503382
4.642,0.1912624774409537
4.644,0.027379682707814434
4.646,0.11434265462810245
4.648,0.29132364408612393
4.65,0.08057589688280385
4.652,-0.012045926271555818
4.654,0.277860057541087
4.656,0.2976764091258721
4.658,0.13271873388986483
4.66,0.2273897377639776
4.662,0.2518038233210306
4.664,0.42570755952916833
4.666,0.20587762647291405
4.668,0.3644594222626136
4.67,0.27770829507994865
4.672,0.23703413591572964
4.674,0.3629889489627507
4.676,0.3806336908280521
4.678,0.3134572679827098
4.68,0.226161203258711
4.682,0.2656871704969821
4.684,0.4333953085448211
4.686,0.4736151396745155
4.688,0.46501469775028714
4.69,0.2748946307616926
4.692,0.39013972455991064
4.694,0.5047129838556812
4.696,0.3708953379694166
4.698,0.4100923842070505
4.7,0.31421669046687134
4.702,0.5143515969279143
4.704,0.39015747810886586
4.706,0.22401945567406836
4.708,0.3292685312968142
4.71,0.36966239869810347
4.712,0.28775073219494823
4.714,0.2940941918800189
4.716,0.32307529974922133
4.718,0.3458361966086293
4.72,0.344269296131301
4.722,0.16729971233933114
4.724,0.39702529490086685
4.726,0.2576690438958427
4.728,0.24738750084119754
4.73,0.2236173297734261
4.732,0.1604488492213679
4.734,0.2490346835859004
4.736,0.4163774311687077
4.738,0.27550258320039367
4.74,0.25411441494652404
4.742,0.2661999926610332
4.744,0.23119750939632533
4.746,0.16992563194643173
4.748,0.09976844774464035
4.75,0.1438725819970744
4.752,0.29290730415098987
4.7540000000000004,0.09402071709684355
4.756,-0.07346437132633801
4.758,0.11623004981999621
4.76,0.03622162449811232
4.7620000000000005,0.10808309398430016
4.764,0.08334747616258145
4.766,0.013827475097975925
4.768,0.18508653387980067
4.7700000000000005,0.16543257946723416
4.772,0.16433413369809113
4.774,0.0755407770486985
4.776,-0.10559191714721747
4.7780000000000005,0.10819008283825335
4.78,-0.09402796473292382
4.782,-0.1300636522167044
4.784,0.039086976022708456
4.7860000000000005,0.06164623612560457
4.788,0.2015983801667734
4.79,-0.056196734670509514
4.792,-0.019418366976549112
4.7940000000000005,-0.0712659904591271
4.796,0.15711499481814997
4.798,-0.017884081731846812
4.8,0.016359642205708347
4.8020000000000005,0.0623855263819397
4.804,0.15348967338726663
4.806,0.08612581367515829
4.808,-0.10608889729337026
4.8100000000000005,-0.07253750665185765
4.812,0.05526490697507359
4.814,-0.02818595572548024
4.816,-0.010430694235640907
4.8180000000000005,-0.003540552228517454
4.82,0.07285844596725377
4.822,-0.05008534018414247
4.824,0.03746764395445905
4.8260000000000005,0.03266349183993951
4.828,0.11975532615946591
4.83,0.04963763888047711
4.832,0.08152772449107755
4.8340000000000005,-0.04952972257569568
4.836,-0.25684753963953855
4.838,-0.06218935932316794
4.84,0.15238795651016865
4.8420000000000005,0.015027686311354812
4.844,-0.026061547728147304
4.846,-0.18551533035457193
4.848,0.12646053076568353
4.8500000000000005,-0.00011205881666582194
4.852,-0.10813937234123867
4.854,-0.1646786187908463
4.856,-0.05124061379493296
4.8580000000000005,-0.014987615901987555
4.86,0.06404369853660559
4.862,-0.0734680346083626
4.864,-0.15921139873274937
4.866,-0.06955425700635011
4.868,0.12871698417283603
4.87,-0.05410820641810875
4.872,-0.09353019101702074
4.874,-0.007413871380180398
4.876,-0.05765106394225636
4.878,0.0987785679149426
4.88,0.11397130100659848
4.882,0.057336735837949154
4.884,0.0032538572979791984
4.886,-0.01822089185319193
4.888,0.03559489105955368
4.89,0.034221962610851066
4.892,0.187794559471509
4.894,0.18785335177955098
4.896,0.10731752865553658
4.898,-0.13369020718640953
4.9,0.15951590607388208
4.902,-0.02443514298607225
4.904,0.012063774661256561
4.906,0.07851002324208929
4.908,0.022071258268786937
4.91,-0.05992019730866404
4.912,-0.17055009190565487
4.914,0.054271896949395576
4.916,-0.00868868181927115
4.918,-0.14493433069229256
4.92,-0.054970309918699896
4.922,-0.09773799283360643
4.924,-0.22661916009528232
4.926,-0.0636970826986015
4.928,-0.042865387298759335
4.93,0.01658472982600685
4.932,0.06471412732608134
4.934,-0.01573543131405729
4.936,-0.012394599044825113
4.938,-0.04342419781537037
4.94,-0.0193620081945531
4.942,-0.12064044193048595
4.944,0.16617944999514608
4.946,-0.049964348516549975
4.948,-0.0423467196939693
4.95,0.028704840515175342
4.952,0.06031363841695586
4.954,0.09386541965974311
4.956,0.0013950415664207162
4.958,0.17728049940845925
4.96,-0.008627683867509551
4.962,-0.18130801254466303
4.964,-0.06529681355748088
4.966,-0.21669866895082532
4.968,0.13568349974534447
4.97,-0.06283708404936428
4.972,-0.021080139327342064
4.974,0.07712952608870509
4.976,-0.05048675026726133
4.978,0.08241103971125227
4.98,0.1585485481096602
4.982,0.13912146269346734
4.984,0.0743032541685002
4.986,0.2769117458737261
4.988,0.1108633175711942
4.99,-0.11651490919822863
4.992,0.01362784608688273
4.994,-0.13851285346043063
4.996,-0.14805039744999415
4.998,-0.18832247041441227
5.0,-0.19768740100493803
5.002,0.14794737957358503
5.0040000000000004,-0.07404207711162827
5.006,0.0468248217554222
5.008,0.01903796386746851
5.01,-0.13233972072910347
5.0120000000000005,0.023150791285186764
5.014,-0.04688627335219135
5.016,-0.005511470917620747
5.018,0.16215006438994486
5.0200000000000005,0.18923604978827804
5.022,-0.018917181360017004
5.024,0.14109313784464542
5.026,0.11655534862938947
5.0280000000000005,0.16698206694439793
5.03,-0.036204064607782624
5.032,0.02576399506345031
5.034,0.26457014113338917
5.0360000000000005,0.020562292366336006
5.038,-0.015212569079530582
5.04,0.05745486237261438
5.042,-0.003086556555814666
5.0440000000000005,0.0669993187194611
5.046,0.03064306569887608
5.048,0.09137009402145344
5.05,0.2221711434607538
5.0520000000000005,0.028191873113493394
5.054,0.1288044546092137
5.056,0.09574467611720047
5.058,-0.025042235128909046
5.0600000000000005,0.15444822920710144
5.062,0.015852193836238246
5.064,0.2328152524287056
5.066,0.21036216426305604
5.0680000000000005,0.18114425772281245
5.07,0.32330567323608483
5.072,2.110193861079579e-05
5.074,0.04948483961874367
5.0760000000000005,0.21652217474592908
5.078,0.20971037275307905
5.08,0.1469034372117756
5.082,0.25562573788344906
5.0840000000000005,0.46920322412611026
5.086,0.19287861975174048
5.088,0.16293668148917007
5.09,0.2916361110999205
5.0920000000000005,0.18400690462367675
5.094,0.28031964425775846
5.096,0.33928898583147404
5.098,0.08621489570227897
5.1000000000000005,0.20138524477493952
5.102,0.2105054557394784
5.104,0.3455275802337494
5.106,0.27137233696512775
5.1080000000000005,0.211859531415406
5.11,0.21877131613998257
5.112,0.10825466796203863
5.114,0.24192557253772715
5.1160000000000005,0.05858790267200275
5.118,0.08598568470307959
5.12,0.03498407590154401
5.122,-0.07215335580997552
5.124,0.1242830766208177
5.126,0.18012260123110993
5.128,-0.04390399602590777
5.13,0.07209901979245212
5.132,-0.04562450765889152
5.134,0.07163041942687293
5.136,0.13549163076241974
5.138,0.0065286265737405855
5.14,0.05057209295068614
5.142,-0.11909483794767407
5.144,0.18504808622515656
5.146,-0.08970037114047581
5.148,-0.03577408695345
5.15,0.14537856850080025
5.152,-0.010983561098818515
5.154,-0.017756563041392504
5.156,0.12809388599273955
5.158,-0.04105107278720589
5.16,-0.03587049168298458
5.162,-0.15387969095004525
5.164,-0.028632224088647726
5.166,0.04582967872829626
5.168,-0.00887107502932135
5.17,-0.15940905548257384
5.172,-0.08570937378654338
5.174,-0.05520780617098721
5.176,0.06577161088245365
5.178,0.052503610600106616
5.18,0.028807680571432025
5.182,0.07054336167676935
5.184,-0.17202049583392426
5.186,0.22773678958555207
5.188,-0.008232860107299057
5.19,-0.016657441396029586
5.192,-0.08641238081335453
5.194,0.14487835386805592
5.196,0.07571164455065466
5.198,-0.006255859936854473
5.2,-0.04033348381987915
5.202,-0.014442423375414215
5.204,-0.0864670188616619
5.206,-0.02082595888001202
5.208,-0.04646716111922052
5.21,0.04214390648348513
5.212,-0.043359580938634214
5.214,-0.10712066533997389
5.216,-0.04900292042918969
5.218,0.004579921596873898
5.22,-0.21856662377622704
5.222,-0.11015299182953893
5.224,-0.08910703836357597
5.226,-0.0539658241523007
5.228,0.117924870038281
5.23,0.23788784472841404
5.232,0.19974512055473925
5.234,0.43370648453934235
5.236,0.5277824662286585
5.238,0.4926039152661913
5.24,0.4482275018049226
5.242,0.7693565778049638
5.244,0.9040744413406457
5.246,0.6975676222663133
5.248,1.065110634296634
5.25,0.9869811672868218
5.252,1.11995872455404
5.2540000000000004,0.9270690491049435
5.256,0.677765755061621
5.258,0.8619151318872159
5.26,0.3738009146131081
5.2620000000000005,0.34715967149769944
5.264,0.5296747543405299
5.266,0.18801205859875622
5.268,0.1631523016623389
5.2700000000000005,0.07254041772382212
5.272,-0.013555048927079788
5.274,-0.024805867800944167
5.276,-0.26894513735767844
5.2780000000000005,-0.2548671433123999
5.28,-0.32536216779602267
5.282,-0.07234507253879423
5.284,-0.11610820561517617
5.2860000000000005,-0.038382512171581395
5.288,-0.041551282933195176
5.29,-0.06293843233290353
5.292,0.018969257607085233
5.2940000000000005,0.023825991316136358
5.296,-0.126590854101072
5.298,0.0005163440609712494
5.3,0.12240871665035301
5.3020000000000005,0.023620913077712025
5.304,-0.07470866685778557
5.306,0.0314950888813283
5.308,-0.00916887751477785
5.3100000000000005,-0.043322205344156414
5.312,-0.08269696923883953
5.314,-0.03913549019315654
5.316,-0.004122716018462419
5.3180000000000005,0.028224656183244778
5.32,-0.020855810541987832
5.322,0.04114802505977757
5.324,-0.020405329435898654
5.3260000000000005,0.09776937104724708
5.328,0.05252385929809997
5.33,0.09135509845049006
5.332,-0.07658440893724623
5.3340000000000005,-0.058197674229046814
5.336,0.14733935067298257
5.338,0.016447404933876242
5.34,0.17799962488423257
5.3420000000000005,0.1209962243243286
5.344,-0.013612435809700145
5.346,-0.031651486549724335
5.348,0.03495382003053092
5.3500000000000005,-0.042751830112152445
5.352,0.14173654115077278
5.354,-0.03278048623363779
5.356,0.23667654455438394
5.3580000000000005,-0.05969639682943447
5.36,0.04403832968743028
5.362,0.12438330349631123
5.364,-0.0721781901698712
5.3660000000000005,0.15312692536876382
5.368,-0.0428663693539071
5.37,-0.1105566052295929
5.372,0.001942211923495439
5.3740000000000006,-0.12803822108291127
5.376,0.04499610313887584
5.378,0.16333269156486585
5.38,0.04681047110762531
5.382,0.08712641469819384
5.384,0.33094285692496267
5.386,0.27025482514358684
5.388,0.04940691103062604
5.39,-0.01293138246423467
5.392,0.2158830241668136
5.394,0.26590236902627684
5.396,0.13799173208679788
5.398,0.32770003931850433
5.4,0.031186710825957004
5.402,0.24364940111937358
5.404,0.17776214591351336
5.406,0.18330247066965966
5.408,0.19866893119955706
5.41,0.2920419965112682
5.412,0.24633846385568062
5.414,0.06733030902611883
5.416,0.10993131712645812
5.418,0.16727212380279516
5.42,0.31513443273914626
5.422,0.21272943105012954
5.424,0.30375230307318674
5.426,0.33877011279452196
5.428,0.26414148420095435
5.43,0.2959914480330616
5.432,0.4252947920972081
5.434,0.48180962211473416
5.436,0.1875479621251072
5.438,0.29188713433403035
5.44,0.37765755092978054
5.442,0.4423654545173615
5.444,0.35721412889410564
5.446,0.2493771174671982
5.448,0.28967558708573365
5.45,0.44657686285673726
5.452,0.5301816086386903
5.454,0.40829580877231475
5.456,0.410379348588358
5.458,0.31042498618541514
5.46,0.46388619984713814
5.462,0.25673790569671257
5.464,0.31166812520903125
5.466,0.1473463834039238
5.468,0.4187344043205113
5.47,0.3997353905330179
5.472,0.3433613149130125
5.474,0.07230134908925845
5.476,0.32482665207625905
5.478,0.3302456828502103
5.48,0.314298273774359
5.482,0.16931203833961705
5.484,0.19701731540520317
5.486,0.2855171553129991
5.488,0.3039581691241525
5.49,0.2034915147644992
5.492,0.19629493870999176
5.494,0.12219821382533942
5.496,0.18927686965337479
5.498,0.23338310725600564
5.5,0.17744556213073565
5.502,0.24860678461908606
5.5040000000000004,0.09366269942408506
5.506,0.17499277879203734
5.508,-0.02488555856178569
5.51,0.08367693139893315
5.5120000000000005,0.12601360019264327
5.514,0.22165138190021233
5.516,0.09920627757958174
5.518,0.053256306660053765
5.5200000000000005,0.09103524077801212
5.522,0.15532946678706896
5.524,0.1194037241910016
5.526,0.29696273500870357
5.5280000000000005,-0.05686117911553188
5.53,0.14346917590672215
5.532,0.0634590977301759
5.534,0.07815855705592864
5.5360000000000005,0.019776640398921276
5.538,0.14912595166217116
5.54,-0.102399817610319
5.542,0.20513723770688558
5.5440000000000005,0.027316296260857766
5.546,-0.0977989457187101
5.548,0.1242265345881364
5.55,0.05244126478609999
5.5520000000000005,-0.028495768915946077
5.554,0.12453607444289391
5.556,0.24735473329795094
5.558,0.035948678940496546
5.5600000000000005,-0.0715356868576918
5.562,-0.2540793710402982
5.564,-0.14198057821286805
5.566,0.07451116004246484
5.5680000000000005,-0.007572121943263883
5.57,0.10434452293016931
5.572,0.001899933061593646
5.574,0.014314650175004653
5.5760000000000005,-0.02575555600223515
5.578,-0.16379689111826243
5.58,-0.043916565569859754
5.582,0.10451146360355885
5.5840000000000005,-0.010577967228391291
5.586,-0.09382798331691847
5.588,-0.03533702639321335
5.59,0.14644691792174838
5.5920000000000005,0.00011305647117433853
5.594,-0.10869048243223994
5.596,0.11899963377337383
5.598,0.06950735056941032
5.6000000000000005,0.09089892861512927
5.602,-0.04804125606496369
5.604,0.012607743418476721
5.606,-0.0032590826346070335
5.6080000000000005,0.03778561274156776
5.61,-0.16160226483624796
5.612,-0.09110193119677587
5.614,0.04903062480455019
5.6160000000000005,-0.021419189370821712
5.618,0.021030701037495606
5.62,-0.11082165608070414
5.622,-0.06144859058107604
5.6240000000000006,0.027433322701079198
5.626,0.0028143608293717593
5.628,0.02609981165860341
5.63,0.008723302566059216
5.632,0.09507207253907726
5.634,0.04332748040740465
5.636,0.011337571212700865
5.638,-0.08371068253545585
5.64,0.048448453562409004
5.642,0.037116495836823186
5.644,0.13405520137392232
5.646,0.10598146667341986
5.648,-0.1468515477965537
5.65,0.0356470148646301
5.652,-0.004243502896400354
5.654,0.10131477263988939
5.656,-0.06467953896910374
5.658,-0.02436862673767869
5.66,0.04757547714003706
5.662,-0.0389657832644444
5.664,-0.09258841354049951
5.666,0.013590901066720177
5.668,0.10346055438845969
5.67,0.011888467953758242
5.672,0.08516730961742924
5.674,0.04527504582063222
5.676,0.21490034840445865
5.678,0.1640587403860503
5.68,-0.114255491143466
5.682,-0.03526199829125648
5.684,0.01624535517862984
5.686,-0.10055646379839832
5.688,0.041729294181241314
5.69,-0.027201152684907037
5.692,-0.053729113897170874
5.694,-0.045834769333861554
5.696,-0.2036103084360621
5.698,-0.0019184105550604622
5.7,-0.13284813157884756
5.702,-0.05844864849459518
5.704,0.08650082852896826
5.706,0.0035159780161791374
5.708,0.19055564480994894
5.71,0.03281881607076979
5.712,-0.04796226647923811
5.714,-0.15262321611799673
5.716,0.05529549840278325
5.718,0.16249468448369528
5.72,-0.05311983536168215
5.722,-0.13716305776757912
5.724,-0.0016079211129000138
5.726,0.020093709568440272
5.728,0.20039981278983232
5.73,-0.05011848141895612
5.732,-0.061130985714887426
5.734,-0.07107803301934705
5.736,-0.05436382036714127
5.738,-0.0020702761316090646
5.74,0.020774633434099785
5.742,-0.00558807166816561
5.744,-0.049121734548681496
5.746,0.0710918522043399
5.748,0.03412952244112571
5.75,-0.2130248809486139
5.752,-0.009906561182861038
5.7540000000000004,0.04878581236000404
5.756,-0.08167935330001662
5.758,-0.09825533607956087
5.76,0.03437039327861003
5.7620000000000005,-0.12074829127866142
5.764,0.1214335792214441
5.766,-0.03943308353890152
5.768,-0.05382659355741967
5.7700000000000005,0.025360685583205533
5.772,-0.13418524130190357
5.774,0.038698157192225635
5.776,0.057853449840244424
5.7780000000000005,-0.10297639910346852
5.78,-0.08912003209733513
5.782,0.19341471612644467
5.784,0.017475186378172296
5.7860000000000005,0.005402282099523611
5.788,-0.021600147569039725
5.79,-0.1014873765294591
5.792,-0.1972048450319225
5.7940000000000005,-0.053962994943158815
5.796,-0.1177510565430165
5.798,-0.05010403474604881
5.8,-0.04860196669740883
5.8020000000000005,-0.005390551569745779
5.804,0.222507563009683
5.806,0.2678948466274955
5.808,0.012296831292103613
5.8100000000000005,0.07264232243618862
5.812,0.11419423376339766
5.814,-0.1104209369274217
5.816,0.2936456969813896
5.8180000000000005,0.2844140901233183
5.82,0.28947755621524773
5.822,0.2139022757324938
5.824,0.19162518594025327
5.8260000000000005,0.2990382340571467
5.828,0.08932000874442758
5.83,0.36697003371309644
5.832,0.1500427344628644
5.8340000000000005,0.16901952629102912
5.836,0.11442142653705464
5.838,0.1286636049906255
5.84,0.33974246007056397
5.8420000000000005,0.16917589732679855
5.844,0.25031399178424096
5.846,0.23407412359841454
5.848,0.43485469603466065
5.8500000000000005,0.31152420494765753
5.852,0.13044639375208866
5.854,0.15174256163441924
5.856,0.07038644318152941
5.8580000000000005,0.2267090973695335
5.86,0.1941706276984652
5.862,0.23828807085119846
5.864,0.1520645537302231
5.8660000000000005,0.1081127487757431
5.868,0.03525076495285373
5.87,0.23459522618099643
5.872,0.07099802761953171
5.8740000000000006,0.11949262542646474
5.876,-0.027319606910911863
5.878,0.0006071265983727606
5.88,0.27195436247557175
5.882000000000001,0.15383515926963395
5.884,0.06596162941336509
5.886,-0.0682030351561244
5.888,0.02315723845795806
5.89,0.02654846467233335
5.892,0.15404847106411015
5.894,0.1049826107721742
5.896,0.043679289716211864
5.898,-0.07818548154252111
5.9,0.028443806104360106
5.902,-0.007367349586085374
5.904,-0.05382085509504357
5.906,-0.1221095399058048
5.908,-0.025520468629349594
5.91,0.13401948480094408
5.912,0.006027627351144708
5.914,0.06183991527722136
5.916,0.03989864121384244
5.918,0.04151884485902104
5.92,0.1702278750961444
5.922,0.12210870637466603
5.924,-0.0009343008515423984
5.926,0.01238534739587846
5.928,0.09616343732004391
5.93,0.1521696733112282
5.932,-0.09163868428777545
5.934,-0.009904788582173491
5.936,0.04545054883272498
5.938,-0.19937690913487344
5.94,0.017304226955906978
5.942,-0.024963978848670704
5.944,-0.03925795371390611
5.946,0.058292777973025116
5.948,0.13095884246123962
5.95,-0.08890557898926983
5.952,-0.017548093177136015
5.954,0.0048440806887315125
5.956,-0.10695030046497328
5.958,-0.025928647558917748
5.96,-0.06299065501393017
5.962,0.00824894699625995
5.964,-0.04599876152753826
5.966,-0.1359641659848777
5.968,-0.0891291019577627
5.97,-0.09385250163216494
5.972,-0.0049340198563818105
5.974,0.05153616740650602
5.976,0.01830662564779334
5.978,-0.09380697012181
5.98,0.20293974170684947
5.982,0.3108531183577209
5.984,0.2572464447143917
5.986,0.4581521470847497
5.988,0.5232781781994879
5.99,0.5321199840485427
5.992,0.8005361948146797
5.994,0.684459136363574
5.996,0.9774331099778452
5.998,0.7546507097137434
6.0,1.1391720032473116
6.002,1.056211391069802
6.0040000000000004,0.8938299523715459
6.006,0.9144762598197747
6.008,0.718541881179769
6.01,0.43895023555968704
6.0120000000000005,0.48857738468494105
6.014,0.3777300390482787
6.016,0.4214041812082083
6.018,0.13604823839600258
6.0200000000000005,-0.08404131264319774
6.022,0.0026774128581460166
6.024,-0.1279955080571305
6.026,-0.19823931762121286
6.0280000000000005,-0.23467656658417058
6.03,-0.26725463626856427
6.032,-0.28680884821996433
6.034,-0.20646120547785168
6.0360000000000005,-0.1842672649895758
6.038,-0.0900772662028701
6.04,0.20380421627485912
6.042,-0.16095711264898252
6.0440000000000005,0.0019836875609315786
6.046,0.0768410742499608
6.048,-0.03479233944478358
6.05,0.12446590603162991
6.0520000000000005,-0.028668818634411983
6.054,-0.03483570406000682
6.056,0.029484409175566183
6.058,-0.0343333994957549
6.0600000000000005,0.14845653210501678
6.062,-0.06119337586120105
6.064,-0.1344035498819776
6.066,0.10738516907010962
6.0680000000000005,0.11628953497711482
6.07,0.05056794522003753
6.072,0.10919515717904961
6.074,0.0718043599759282
6.0760000000000005,0.12125593049373506
6.078,-0.05782008275865598
6.08,0.07963098192523649
6.082,-0.033107181015494314
6.0840000000000005,-0.28512784906815025
6.086,-0.11018855426404367
6.088,0.023224560118378913
6.09,-0.2297928922023159
6.0920000000000005,-0.035952342862925736
6.094,0.024272860349491623
6.096,-0.027949927437859692
6.098,-0.040389878429712645
6.1000000000000005,-0.1244269065771719
6.102,0.16132469877224564
6.104,-0.09743347980337147
6.106,-0.0394250534295313
6.1080000000000005,0.11452524047545062
6.11,0.23084173099270897
6.112,0.07292059064434556
6.114,0.1726701878015836
6.1160000000000005,0.13965033204272778
6.118,-0.05788903030024631
6.12,-0.005247977999217522
6.122,0.06617784431061845
6.1240000000000006,0.05731391707694486
6.126,0.0721075893663264
6.128,0.1701682794278356
6.13,0.31075871775667824
6.132000000000001,0.14926568095566697
6.134,0.008489047786270201
6.136,-0.024577217303565477
6.138,0.20169393242321
6.140000000000001,0.25356079871042136
6.142,0.1143374471612799
6.144,-0.007837202154622941
6.146,0.03435842574280221
6.148,0.10618016308897993
6.15,0.08041875693626156
6.152,0.214558888563333
6.154,0.12907249639646817
6.156,0.18149244923950078
6.158,0.29421246516112987
6.16,0.3626081686487798
6.162,0.16906576286165195
6.164,0.12606054261986163
6.166,0.37401741518325354
6.168,0.17112374825562962
6.17,0.18523457265696863
6.172,0.1719041793567332
6.174,0.2577365004422883
6.176,0.1161247723603418
6.178,0.16189779795320694
6.18,0.20578415950510712
6.182,0.3261203367206662
6.184,0.2565074264231108
6.186,0.3187006436901573
6.188,0.3310317345384212
6.19,0.1571915972387303
6.192,0.3581473048988594
6.194,0.3333056730345397
6.196,0.3933607423650139
6.198,0.28555205819638907
6.2,0.46189233408139113
6.202,0.4497512773212192
6.204,0.283986317095837
6.206,0.23787910670082835
6.208,0.3250846127258137
6.21,0.28887508055206923
6.212,0.319234649386621
6.214,0.43932088378145384
6.216,0.39157622721991187
6.218,0.2684786904147568
6.22,0.24877082953995958
6.222,0.44649835584389075
6.224,0.3805128016953029
6.226,0.18249126766354673
6.228,0.2224170686855648
6.23,0.08619251577921364
6.232,0.1368323073221119
6.234,0.41552348834402086
6.236,0.2854517279124803
6.238,0.20051974578822637
6.24,0.23688706129677833
6.242,0.3278371429805565
6.244,0.13157929809415872
6.246,0.14981407229873114
6.248,0.2181657041073163
6.25,-0.1386897282815358
6.252,0.11033936698630556
6.2540000000000004,0.15269000617178427
6.256,0.14541892977165788
6.258,0.1056357893950697
6.26,0.11234778501665008
6.2620000000000005,0.1258540622901883
6.264,0.0383175254744403
6.266,-0.01152274720377866
6.268,0.08130944377033358
6.2700000000000005,0.09013142026151302
6.272,0.04435332457612413
6.274,0.10339736945837555
6.276,0.1347250108928766
6.2780000000000005,-0.01866453903539623
6.28,0.04783269164403065
6.282,-0.008273501015847881
6.284,-0.018988926812212294
6.2860000000000005,-0.16076920144108361
6.288,0.01697298680475636
6.29,-0.07086430227711632
6.292,0.07406128654700592
6.2940000000000005,0.19590596588070816
6.296,0.0265807053367327
6.298,0.09762681346093174
6.3,-0.044348609325139926
6.3020000000000005,0.2050077032710262
6.304,-0.15781182335908717
6.306,-0.10926478545038236
6.308,0.005804123438331629
6.3100000000000005,-0.13853640787097685
6.312,0.18057166661964583
6.314,-0.21855989131377493
6.316,-0.14131020726796165
6.3180000000000005,-0.011888291678482347
6.32,-0.032839248380987465
6.322,0.059547858178389715
6.324,0.12531135813710376
6.3260000000000005,0.22121004827653198
6.328,-0.04191349335347112
6.33,-0.11434440071954645
6.332,0.0538017932033381
6.3340000000000005,0.030889987500051293
6.336,-0.21346277197960864
6.338,0.10003577945537766
6.34,-0.10185149230591733
6.3420000000000005,-0.01339113871785786
6.344,-0.13219466816992567
6.346,-0.06076104426429984
6.348,0.01831304282462864
6.3500000000000005,-0.14431587589509084
6.352,-0.03227061127541744
6.354,0.13214372652926862
6.356,-0.09291845367442363
6.3580000000000005,-0.03527080941577215
6.36,-0.09635302128806734
6.362,-0.02584684899987651
6.364,-0.033673040789757074
6.3660000000000005,-0.020532763110932994
6.368,-0.08459312968747403
6.37,0.014355824480818187
6.372,-0.0038950290222883968
6.3740000000000006,-0.06896075799541417
6.376,-0.07089485631651343
6.378,0.006605473057868939
6.38,-0.06202359933633149
6.382000000000001,0.05119324222422852
6.384,0.19067408982015696
6.386,-0.0884452723263893
6.388,-0.23573281931252815
6.390000000000001,0.04035458646929469
6.392,-0.0010700767269702849
6.394,0.06125491251836113
6.396,-0.23397600478114647
6.398000000000001,0.01918282387999642
6.4,0.040310322014560286
6.402,-0.03249835302891615
6.404,-0.08550090274769215
6.406,0.06358600020316652
6.408,-0.021600662686002924
6.41,-0.10876381865436391
6.412,0.08869440369417657
6.414,0.21923947960210155
6.416,-0.046222794335846584
6.418,0.0021319773406859826
6.42,-0.03944857867913011
6.422,0.08477321929877957
6.424,0.18506069969411496
6.426,0.023440179781544734
6.428,0.11972912692685501
6.43,0.013468436845974931
6.432,0.004890374503525594
6.434,-0.08668875924788604
6.436,0.09561299268559181
6.438,0.001690621938451165
6.44,0.12490335001406734
6.442,-0.10235033889760611
6.444,-0.03144566905195109
6.446,0.0339703763360664
6.448,0.14741472580202172
6.45,0.06224354682524258
6.452,-0.03593712477521124
6.454,0.16340515524804372
6.456,0.037395099763183094
6.458,0.05153086771927106
6.46,0.04721794163580994
6.462,0.08078413849562144
6.464,0.03529803348590729
6.466,-0.1151700546400922
6.468,0.004552652272325372
6.47,-0.012044935154336979
6.472,-0.022539841885047516
6.474,-0.04346412282988052
6.476,0.09359647208636342
6.478,-0.08614890670131636
6.48,-0.05439826122371497
6.482,0.03769126335678783
6.484,-0.0205371094050663
6.486,-0.013800144148365192
6.488,0.009672005109953107
6.49,0.09298828086243947
6.492,0.05687585566783033
6.494,0.14385528411060577
6.496,0.09807717086947594
6.498,0.03403658579841953
6.5,0.008043345692189285
6.502,0.08271552064129005
6.5040000000000004,0.13794296834364103
6.506,0.09635531216137415
6.508,-0.01774530926587682
6.51,0.18455662978934817
6.5120000000000005,0.03386731589907324
6.514,-0.0663359290563012
6.516,-0.12388201812361876
6.518,0.0221198491491323
6.5200000000000005,0.1803104431714643
6.522,-0.061626707947423615
6.524,-0.14696891170303092
6.526,-0.10496931132943466
6.5280000000000005,0.11171786474313905
6.53,0.02343014721112787
6.532,-0.004487870030584129
6.534,-0.04298806187417102
6.5360000000000005,0.16995064025359752
6.538,0.12287690914821309
6.54,-0.045273979730961374
6.542,0.027679653425212898
6.5440000000000005,-0.19734636151726315
6.546,0.13343595302238243
6.548,0.11592882463916808
6.55,-0.11755160015711896
6.5520000000000005,0.1804912800601538
6.554,0.16718070444420427
6.556,0.08764436235688401
6.558,-0.10830497341081174
6.5600000000000005,0.1268290392911946
6.562,0.021922443563297853
6.564,0.21079497898275595
6.566,0.12883761524005938
6.5680000000000005,0.13588625471658522
6.57,0.14161100479748903
6.572,0.16861232364618112
6.574,0.13957529832291493
6.5760000000000005,0.23214482648499474
6.578,0.24723735782311834
6.58,0.03170745883305351
6.582,0.2993872091773843
6.5840000000000005,0.44345758619702896
6.586,0.08480941358696503
6.588,0.3998595319026699
6.59,0.1912069271669104
6.5920000000000005,0.43536089546289203
6.594,0.08059378134262868
6.596,0.13384338351492758
6.598,0.2495079523795713
6.6000000000000005,0.2715042168022124
6.602,0.18410309648579407
6.604,0.22683697449672394
6.606,0.341908775247729
6.6080000000000005,0.19032081211310048
6.61,0.1254025320977295
6.612,0.07142022240629807
6.614,-0.031605179146410645
6.6160000000000005,0.025453589881769295
6.618,-0.03138232132064811
6.62,0.04123779896622481
6.622,0.10017229813794587
6.6240000000000006,0.0709866074337882
6.626,-0.0039411900422855126
6.628,0.060306793653639224
6.63,0.1805666087993953
6.632000000000001,0.1875482283523013
6.634,-0.004796247711665171
6.636,-0.15875189987356497
6.638,-0.24559255042186617
6.640000000000001,0.0060151225469552575
6.642,0.050094340722207066
6.644,0.07951326427852592
6.646,0.0029394181969769674
6.648000000000001,0.0006290982606752876
6.65,-0.018861741741998596
6.652,0.238118125067922
6.654,-0.02600829783192488
6.656000000000001,-0.0020618457406599323
6.658,-0.07602335342531505
6.66,0.07635858805515458
6.662,0.048765891064074134
6.664,-0.005202211367066301
6.666,0.0532403803915854
6.668,-0.0355728108565184
6.67,0.1334047358731415
6.672,0.24284629389450876
6.674,0.1784572943605955
6.676,0.0023142943946067953
6.678,0.0423303015271211
6.68,-0.013166207695157448
6.682,-0.00580156882072955
6.684,0.03380313921351029
6.686,0.13461642728912884
6.688,-0.030220835361040102
6.69,0.1110063065473358
6.692,-0.1923187661152488
6.694,0.03168262970790379
6.696,-0.09806505715606188
6.698,0.03726662455919208
6.7,0.15403176179931952
6.702,0.07740195782498445
6.704,-0.03500043942916114
6.706,0.019490172604421364
6.708,0.027040350526919443
6.71,0.02826935640831256
6.712,0.00344284280519417
6.714,-0.07449046098458856
6.716,0.06206747234494925
6.718,-0.09473928119219516
6.72,-0.0511201301755088
6.722,-0.0716227155455761
6.724,-0.17033714453485424
6.726,-0.007394423042910825
6.728,-0.18852723681486344
6.73,0.10010230318864453
6.732,0.3220803434796631
6.734,0.2579000330483834
6.736,0.449060253628051
6.738,0.5995820549122393
6.74,0.6221775055164981
6.742,0.74762066456035
6.744,0.6108569323062764
6.746,1.0312618341525992
6.748,0.9617393928317497
6.75,1.0497780234463587
6.752,0.8519021275713067
6.7540000000000004,1.0463373007853352
6.756,0.7838623898576756
6.758,0.7192751184541396
6.76,0.7415741987142442
6.7620000000000005,0.41456614612951814
6.764,0.45922703235107676
6.766,0.32250969743361346
6.768,0.27479165819472595
6.7700000000000005,0.1508539095434749
6.772,-0.12986875855423163
6.774,-0.26551790711845996
6.776,-0.17021866506574862
6.7780000000000005,-0.2827521319367731
6.78,-0.14996506024038203
6.782,-0.29774821837842635
6.784,-0.13888264520539395
6.7860000000000005,0.05261926524493295
6.788,0.09751254829554798
6.79,-0.054822655859067544
6.792,-0.12032763076417019
6.7940000000000005,0.12388870438143974
6.796,-0.004555916702680127
6.798,0.1243810012874407
6.8,0.10474801493089665
6.8020000000000005,-0.083802002114208
6.804,-0.022032433995424698
6.806,-0.06774751167252895
6.808,0.31217719161345486
6.8100000000000005,0.12758606732050565
6.812,-0.07574290253534595
6.814,0.07626976831795161
6.816,0.0631717029007093
6.8180000000000005,-0.11493623966949477
6.82,0.20315186998277485
6.822,-0.0401210530047903
6.824,-0.1433678153250375
6.8260000000000005,0.08681113196040353
6.828,-0.12142099493354885
6.83,0.06067754414244507
6.832,-0.13033530775728008
6.8340000000000005,-0.05772734269115842
6.836,0.11834196133532861
6.838,-0.05450647665322059
6.84,0.0180254561420632
6.8420000000000005,0.002317522414381391
6.844,0.06845035429312532
6.846,-0.01128091981943149
6.848,0.06305255068732096
6.8500000000000005,0.03631477684373649
6.852,0.15682939091003167
6.854,-0.09169565107157007
6.856,-0.07633450019504917
6.8580000000000005,0.20638933921428218
6.86,0.15106138823039023
6.862,0.11278655654889619
6.864,0.36158257410131445
6.8660000000000005,0.05917220448393733
6.868,-0.06671387882858036
6.87,0.15736452890941377
6.872,-0.0007380490462433956
6.8740000000000006,0.11404540211344637
6.876,0.169827103983608
6.878,0.030978156348045204
6.88,0.05751507989368188
6.882000000000001,0.10203525666808784
6.884,0.21183862911818754
6.886,0.2192141195757949
6.888,0.16606504170735065
6.890000000000001,0.178884165708819
6.892,0.2757549665282744
6.894,0.26423685900920457
6.896,0.049634261825173415
6.898000000000001,0.21726441392432166
6.9,-0.013409076471134262
6.902,0.23494000390069583
6.904,0.19354906928862306
6.906000000000001,0.18171060553534532
6.908,0.1761940202801369
6.91,0.10411443723397396
6.912,0.16037708036372827
6.914,0.27311799980411705
6.916,0.24562491132954478
6.918,0.21376948034110066
6.92,0.32121497724336967
6.922,0.25348616744156693
6.924,0.29378087986763674
6.926,0.1950642420976363
6.928,0.4624545529530875
6.93,0.3313501242195729
6.932,0.36990999359944093
6.934,0.24719623451111883
6.936,0.2581182645415641
6.938,0.4394738990577092
6.94,0.4276714949819864
6.942,0.4665722229331812
6.944,0.19521132329429786
6.946,0.46529853618654793
6.948,0.34631926499054166
6.95,0.21420904408740363
6.952,0.27092995137441944
6.954,0.3858028467211037
6.956,0.34456638844851095
6.958,0.32781607913440164
6.96,0.41342234848057907
6.962,0.5878743597320866
6.964,0.3105854311877017
6.966,0.4787284999682101
6.968,0.4765796006392265
6.97,0.13116077563350995
6.972,0.23891523747103022
6.974,0.1821338262744093
6.976,0.24781392977911817
6.978,0.21746388708328995
6.98,0.276236016121802
6.982,0.049675432670529845
6.984,0.22302954192305358
6.986,0.04448570941847829
6.988,0.180303325339781
6.99,0.15230331155120677
6.992,0.41198941438824277
6.994,0.34726906970126187
6.996,0.16521588143988844
6.998,0.2541153193987279
7.0,0.14372889347683873
7.002,0.26432703761482257
7.0040000000000004,0.004108478846445607
7.006,-0.019267963781506414
7.008,0.1111534406502776
7.01,0.14066730990780665
7.0120000000000005,0.06498888001050013
7.014,0.013711157338627003
7.016,-0.0628007006984131
7.018,-0.0938385163277207
7.0200000000000005,0.11391741104932185
7.022,0.059415350162124174
7.024,0.08291682209103438
7.026,0.015090119549683784
7.0280000000000005,-0.012972944238887112
7.03,0.16967126327633708
7.032,-0.04869603736670032
7.034,0.02781547774475264
7.0360000000000005,0.06017080275509026
7.038,0.04800054481499744
7.04,-0.1685110617574684
7.042,0.18235061733349894
7.0440000000000005,-0.0030300592426873163
7.046,0.164062389067817
7.048,0.1019550920272956
7.05,0.19699348952058124
7.0520000000000005,0.10996899875824453
7.054,-0.018727428378236925
7.056,0.05687091168083262
7.058,0.15765667923166132
7.0600000000000005,0.0031733367074236775
7.062,-0.06715584882759965
7.064,-0.06646697246750148
7.066,-0.06191181778539041
7.0680000000000005,-0.05410542071250765
7.07,0.08431552800331105
7.072,-0.011324777416226506
7.074,0.03566490977443663
7.0760000000000005,0.12487311904258723
7.078,-0.024184930266610217
7.08,0.0587599112357363
7.082,0.11143614636286768
7.0840000000000005,0.1556719002049375
7.086,0.17307958841160434
7.088,0.06625769900448711
7.09,-0.025779417699270748
7.0920000000000005,-0.01043682545056892
7.094,0.11655614111839172
7.096,0.041541896658429556
7.098,-0.12419320619848244
7.1000000000000005,-0.12678843691146185
7.102,-0.06383316612196413
7.104,0.16584792451486663
7.106,-0.14765861118237203
7.1080000000000005,0.1531090428756123
7.11,0.04689816645744379
7.112,-0.018508640112297824
7.114,0.09666754285429577
7.1160000000000005,0.09786403347548814
7.118,0.040174025880699196
7.12,-0.06768598345278097
7.122,0.18139242372647746
7.1240000000000006,0.11889851200036952
7.126,0.12814423068044684
7.128,0.06558419698729362
7.13,0.08915088047567961
7.132000000000001,-0.11958453327978527
7.134,-0.056435428490774216
7.136,-0.05314122815495683
7.138,-0.13824150799520318
7.140000000000001,0.059482805355716185
7.142,0.024822472710109317
7.144,-0.0636502991587768
7.146,-0.04332836162002726
7.148000000000001,-0.19491791089210106
7.15,0.1353373292662655
7.152,0.08705868121483523
7.154,0.002066934023460815
7.156000000000001,-0.1287892368049454
7.158,-0.05166738480406652
7.16,-0.07155442611265375
7.162,0.12305896386699333
7.164000000000001,0.031884669763567526
7.166,-0.19332955654961484
7.168,-0.07460942700075908
7.17,0.1642135710944436
7.172,-0.05506891420883593
7.174,-0.03222771718760746
7.176,-0.012422498663716117
7.178,0.11411565886742535
7.18,-0.1315477748188388
7.182,-0.04422433322245926
7.184,0.12953846453314868
7.186,-0.002538868716812964
7.188,-0.03743764930233342
7.19,-0.042708238038093836
7.192,-0.03905899668648004
7.194,0.0757280003008513
7.196,-0.16776430118918734
7.198,-0.10211718955026759
7.2,0.09632920026682777
7.202,0.08313557303499662
7.204,0.014176766993809915
7.206,-0.10784494962463168
7.208,-0.22860638418629464
7.21,0.19564205795213452
7.212,-0.06904377973235336
7.214,0.09123062863361989
7.216,-0.015289204189641406
7.218,0.0207684527694205
7.22,0.19012488722846416
7.222,-0.10437258507816187
7.224,-0.2002877237200548
7.226,0.014193508686751097
7.228,0.057841691267248196
7.23,-0.12408342171112254
7.232,-0.003943203022481038
7.234,0.02413567413249144
7.236,0.20242564004882277
7.238,0.10254532610136588
7.24,-0.03347018943348983
7.242,-0.109683693124461
7.244,-0.11402979765450356
7.246,-0.03765655773293473
7.248,-0.02905832133284546
7.25,-0.024814285760400137
7.252,0.04232719718211909
7.2540000000000004,-0.07388104968947891
7.256,-0.08497559027345924
7.258,0.09691724478249221
7.26,-0.014460897129473104
7.2620000000000005,-0.21378354084389856
7.264,-0.035417637694408935
7.266,0.0890225330112875
7.268,0.07444969078751668
7.2700000000000005,-0.09811320505592992
7.272,-0.018627441269965624
7.274,0.039132991404468354
7.276,-0.16288889586639874
7.2780000000000005,0.20694094322644455
7.28,0.103928366147085
7.282,0.09528272222630514
7.284,0.18368022230606879
7.2860000000000005,0.02981767412724887
7.288,-0.10006452449154898
7.29,-0.040360795073570474
7.292,-0.011003851649260682
7.2940000000000005,0.10804284087575045
7.296,-0.003839847362746493
7.298,-0.07703629593031902
7.3,0.034893258868716644
7.3020000000000005,0.05023583587572838
7.304,-0.14538558859609088
7.306,0.15339958218590255
7.308,0.02405399458774641
7.3100000000000005,0.2413262720702357
7.312,-0.10652763221840852
7.314,0.08383398970120072
7.316,0.1686854783097298
7.3180000000000005,0.2641829009705533
7.32,0.029711827353226916
7.322,0.30456044833892293
7.324,0.09787125703863042
7.3260000000000005,0.1813302506708666
7.328,0.1098903432928878
7.33,0.22505281897595175
7.332,0.2958669355012737
7.3340000000000005,0.20094845172274814
7.336,0.2751503750002546
7.338,0.24983875670603267
7.34,0.2922242040763284
7.3420000000000005,0.27423953714600374
7.344,0.16270865591655373
7.346,0.3293823595440382
7.348,0.27004074795384864
7.3500000000000005,0.293145381154047
7.352,0.19311997952778676
7.354,0.09885615681511879
7.356,0.1419253794336918
7.3580000000000005,0.046255833918601774
7.36,0.12588602989438646
7.362,0.22704372709783494
7.364,0.15316508612634738
7.3660000000000005,0.11890003701847822
7.368,-0.052217851469856025
7.37,0.12378946404764134
7.372,0.004410628607773762
7.3740000000000006,0.06146810252129245
7.376,0.03988455142037296
7.378,0.05759402305789045
7.38,0.21405855552004038
7.382000000000001,-0.09064073184327369
7.384,0.11436794717657879
7.386,0.12627904203276605
7.388,-0.04085302685425509
7.390000000000001,0.08598745832347135
7.392,0.05593901961630008
7.394,0.14970681354212925
7.396,-0.2220249334413907
7.398000000000001,0.022464877746700383
7.4,0.1759676927880624
7.402,-0.11529003582137881
7.404,0.03956212762326934
7.406000000000001,-0.014915103754973073
7.408,-0.1204071937073971
7.41,-0.006355543526521528
7.412,0.20686270526591433
7.414000000000001,-0.000909919757304171
7.416,0.020823955526532684
7.418,-0.24688268449213518
7.42,-0.03233011400542708
7.422000000000001,-0.06712081205382288
7.424,0.09757542858050279
7.426,-0.0902417405332032
7.428,0.0007655095462706859
7.43,0.07076432525692475
7.432,-0.052328834331352145
7.434,0.12744274780169992
7.436,-0.0509826375724674
7.438,0.03142825402996592
7.44,-0.15963714595187573
7.442,-0.2189074239039138
7.444,-0.08297147815780678
7.446,0.12060791715119135
7.448,-0.06848050823590753
7.45,0.13576927658861546
7.452,-0.2311684404101592
7.454,0.08770933987409882
7.456,-0.010575285982829042
7.458,0.02187723009385962
7.46,0.061397662080147034
7.462,-0.014795524106296334
7.464,-0.010488483959035698
7.466,0.055567697227091595
7.468,-0.13146029759420777
7.47,0.04654145924802813
7.472,-0.15193644127936096
7.474,0.07110099287783192
7.476,-0.02727545945172566
7.478,-0.14583690061858962
7.48,0.28262996454956285
7.482,0.21565662462743615
7.484,0.3713384266062239
7.486,0.2761395749848607
7.488,0.6599644897438837
7.49,0.6536146892754571
7.492,0.6155954712122327
7.494,0.9114172700158887
7.496,0.9810028372290135
7.498,1.0762049981878548
7.5,1.029393311227423
7.502,1.0040213979789225
7.5040000000000004,0.8319822308778271
7.506,0.8433467008165204
7.508,0.7264362522786648
7.51,0.6024247151492661
7.5120000000000005,0.3721540189934784
7.514,0.4711915881876
7.516,0.3321554217105807
7.518,0.23113792886151482
7.5200000000000005,0.060683397677512234
7.522,-0.004680326335480656
7.524,-0.12166649181426532
7.526,0.0884920886453413
7.5280000000000005,-0.2274263842261703
7.53,-0.19864337635202542
7.532,-0.07487686911925408
7.534,-0.0789299427891809
7.5360000000000005,-0.20670539062184373
7.538,-0.16169118449494585
7.54,-0.021402177836764888
7.542,0.012797219670222952
7.5440000000000005,-0.11980030274798471
7.546,0.014002343640873221
7.548,-0.20150972654229657
7.55,-0.08995112432530719
7.5520000000000005,-0.11065222673996009
7.554,-0.14698033395170582
7.556,-0.18143865165635512
7.558,0.006003340411008621
7.5600000000000005,0.06797185674604908
7.562,-0.007771092699358895
7.564,-0.05048863661953512
7.566,-0.09638622566938924
7.5680000000000005,-0.001036773228092555
7.57,0.12259989769962469
7.572,0.05822974560099252
7.574,-0.1547952687501538
7.5760000000000005,-0.026228553582915235
7.578,0.039926935939727286
7.58,0.037544841703210076
7.582,0.0842336923906524
7.5840000000000005,-0.11095344178487213
7.586,0.10809897001985225
7.588,0.1693434273817112
7.59,0.023965396745031193
7.5920000000000005,0.023259322421726618
7.594,0.1914377043701458
7.596,0.023365409045501415
7.598,-0.13613117956715026
7.6000000000000005,0.03657412361611062
7.602,-0.008160044950648059
7.604,0.11784956010043555
7.606,-0.017162275746579518
7.6080000000000005,0.012773935501316277
7.61,0.11460165684089796
7.612,0.03759540638137404
7.614,0.11206847072770318
7.6160000000000005,0.006657557733011084
7.618,-0.002367651644088656
7.62,-0.004933822935406444
7.622,0.024831996408997234
7.6240000000000006,0.2001393281639792
7.626,0.2096605282290681
7.628,0.07303456531502918
7.63,-0.025604028310784052
7.632000000000001,0.10989887155322231
7.634,-0.030516980685661915
7.636,-0.06552126355113823
7.638,0.05373105698861233
7.640000000000001,0.19102154470710947
7.642,0.39651205380580284
7.644,0.06240795025878154
7.646,0.13024831169711287
7.648000000000001,0.2013969031871982
7.65,0.29384994404224873
7.652,0.12471076136020431
7.654,0.10430929270817832
7.656000000000001,0.07270009393659582
7.658,0.05443283020965692
7.66,0.35374349560177704
7.662,0.2037926567572386
7.664000000000001,0.16181239828122235
7.666,0.31817377576061723
7.668,0.20697575515378253
7.67,0.23502189220842876
7.672000000000001,0.17595896965659608
7.674,0.285659562235114
7.676,0.15484635609979136
7.678,0.2784208072516871
7.68,0.14036238421084876
7.682,0.29248270710501373
7.684,0.20594982383657445
7.686,0.2828046019965432
7.688,0.34957303666570594
7.69,0.27201573501177695
7.692,0.26235697009589887
7.694,0.32724670448976634
7.696,0.25828759051285616
7.698,0.35814304569287025
7.7,0.44204054028857265
7.702,0.3032216841863273
7.704,0.37121647373846367
7.706,0.012931244482799198
7.708,0.29576180387438933
7.71,0.25414821053849745
7.712,0.19293504056118296
7.714,0.25147286662738355
7.716,0.36102285890486563
7.718,0.3086311618698276
7.72,0.4854138872662296
7.722,0.14617589953886995
7.724,0.165954250603545
7.726,0.28304084194654616
7.728,0.2998400733160206
7.73,0.3106622348729699
7.732,0.39349950068271955
7.734,0.16322870698997782
7.736,0.2464431626470909
7.738,0.47998075949037927
7.74,0.27440258402309686
7.742,0.14081281206294327
7.744,0.25953611270132787
7.746,0.29250100925959066
7.748,0.06426334009988285
7.75,0.27394479488935086
7.752,0.13456321783064584
7.7540000000000004,0.017485279446160504
7.756,0.10974270740409318
7.758,0.2101354248718335
7.76,0.11254064167138934
7.7620000000000005,0.12589059124267055
7.764,0.04800411866029983
7.766,0.1657758685091183
7.768,0.11186934665455664
7.7700000000000005,0.14316639721958382
7.772,0.014631470726980789
7.774,0.0990635660494167
7.776,-0.028601015504139522
7.7780000000000005,0.14957717906701137
7.78,0.03601033877491254
7.782,0.13998776655104392
7.784,0.2673146702135579
7.7860000000000005,-0.028395509519366723
7.788,-0.019968224046654628
7.79,0.08160416065035189
7.792,-0.10025540426521129
7.7940000000000005,-0.054050204405718276
7.796,-0.0045807928369018015
7.798,-0.00017394004589461887
7.8,0.08730093614224037
7.8020000000000005,0.21470098758506795
7.804,-0.02061723435614147
7.806,-0.1358879743051664
7.808,0.023914968171837275
7.8100000000000005,0.029293741980810736
7.812,0.1709230298891104
7.814,0.01691475924900131
7.816,0.028296509991857215
7.8180000000000005,0.044351880890244444
7.82,0.24297054970534665
7.822,0.09804132417272134
7.824,0.026938337334007773
7.8260000000000005,-0.035913027847050596
7.828,-0.22286327391135402
7.83,-0.014031815929342797
7.832,-0.0399529541035183
7.8340000000000005,0.0042071855378434195
7.836,-0.0006383565849078453
7.838,-0.012023175342417737
7.84,-0.13099971693854598
7.8420000000000005,0.17604511725157948
7.844,0.10253503199484278
7.846,-0.0002231930497126003
7.848,0.08116714277545732
7.8500000000000005,0.022372309013886326
7.852,-0.043150514684209024
7.854,-0.07091122982306701
7.856,-0.025061785048424972
7.8580000000000005,0.004405031109668823
7.86,-0.25645978618438375
7.862,0.02632912220892009
7.864,-0.16716358799883893
7.8660000000000005,-0.05795883612649405
7.868,-0.08762092486023604
7.87,0.07750822983155284
7.872,0.02511742511470374
7.8740000000000006,-0.023872861391744736
7.876,-0.007202661183002385
7.878,0.07021347270655184
7.88,0.007530638733885091
7.882000000000001,0.014453596158879908
7.884,0.04677037711696004
7.886,-0.04310526515744003
7.888,0.13841788646206155
7.890000000000001,0.021770243114247464
7.892,-0.010003374778007074
7.894,0.028368574171899946
7.896,0.08649544290068627
7.898000000000001,0.12279850813070058
7.9,-0.03803702728535819
7.902,-0.13074106762663482
7.904,-0.08510966417802705
7.906000000000001,-0.101486374048582
7.908,0.21992422343072046
7.91,0.014517599934158586
7.912,0.20840314950267522
7.914000000000001,0.09461091562698036
7.916,-0.002182650892256799
7.918,0.09254797389259356
7.92,0.0006305272286542983
7.922000000000001,-0.08832470304211246
7.924,-0.12747618866761246
7.926,-0.022058925025929158
7.928,-0.019180350842797643
7.930000000000001,0.0766806251683747
7.932,-0.04494616999676108
7.934,0.0900906923701424
7.936,0.060297056267971785
7.938,0.005466410875969035
7.94,-0.012238673041400383
7.942,0.016696302589920754
7.944,0.1496740056697804
7.946,-0.04657779646002473
7.948,-0.0363730695467539
7.95,0.15522337678850584
7.952,-0.016525507154588285
7.954,0.07229403937239448
7.956,-0.011294999866493962
7.958,-0.0016335571608082618
7.96,-0.01703197346885557
7.962,-0.004682750743130202
7.964,0.04738376960751509
7.966,0.08864061666626437
7.968,-0.02633988591089358
7.97,0.006153152211823164
7.972,0.1919849973547179
7.974,-0.029343486420870018
7.976,0.028240445409398827
7.978,0.010586429847501126
7.98,-0.07211957584422277
7.982,-0.035922868444186365
7.984,-0.0961194437144177
7.986,0.021141627079041353
7.988,-0.055826947366772794
7.99,0.01921324114373011
7.992,-0.0478483935019491
7.994,0.026808776653666138
7.996,-0.08025924248330871
7.998,-0.03506438813389175
8.0,-0.09044620260052219
8.002,-0.009359438945718163
8.004,-0.03531014611457187
8.006,0.06404166066784861
8.008000000000001,0.13020050353730675
8.01,0.006112376042467341
8.012,-0.07712998991367186
8.014,0.04294441472242348
8.016,0.04546966456540386
8.018,0.13456723982440832
8.02,0.14834755167991376
8.022,0.12459049196876863
8.024000000000001,-0.12798553018873
8.026,-0.07553870964481912
8.028,-0.21134096030333557
8.03,-0.00044206169573804844
8.032,0.03423276888872871
8.034,-0.09410176550838159
8.036,0.034030347758488774
8.038,0.027428012339073764
8.040000000000001,-0.17640925532075494
8.042,0.11897739259451359
8.044,-0.07424915021893247
8.046,0.1702470758768039
8.048,0.10377159293432325
8.05,0.1999182230777072
8.052,0.15567381974873404
8.054,-0.056024973474899493
8.056000000000001,-0.03027695928211427
8.058,0.16166224615957536
8.06,0.14435290474682977
8.062,0.20099266019329998
8.064,0.1086861157971171
8.066,0.08017042604528356
8.068,0.0887194197496381
8.07,0.34100388465679543
8.072000000000001,-0.007561968127423324
8.074,-0.08409414442069907
8.076,0.19506706351011457
8.078,0.23147962512299147
8.08,0.18223958372489454
8.082,0.03320738104738327
8.084,0.16008649406119013
8.086,0.13032856173613097
8.088000000000001,0.24083816208704428
8.09,0.41938391658287877
8.092,0.406471457910047
8.094,0.18415497428004207
8.096,0.2653201815361306
8.098,0.28396148410322164
8.1,0.3894360255134237
8.102,0.09292027740828018
8.104000000000001,0.32204964690146887
8.106,0.1505852425903402
8.108,0.2933151535322094
8.11,0.12683532988073684
8.112,0.12148596865968278
8.114,0.21757403325229074
8.116,0.10402975220802316
8.118,0.10727381831506536
8.120000000000001,-0.03200336049267491
8.122,0.15525205702968592
8.124,0.1058505775101774
8.126,-0.0477869624072343
8.128,0.029503839914491715
8.13,-0.013200691616964959
8.132,-0.11434161843462361
8.134,0.020436390379243805
8.136000000000001,0.0944611761883557
8.138,0.09496740362342194
8.14,0.23163396315868767
8.142,-0.044115882779170355
8.144,-0.16179913897557385
8.146,-0.014470315895992836
8.148,0.010010663800414201
8.15,0.18930658125053273
8.152000000000001,0.07943908825769591
8.154,0.1775779131784022
8.156,0.07409316343087846
8.158,0.05672702160051731
8.16,-0.07395131593072152
8.162,0.04213856505178599
8.164,-0.11698567431345304
8.166,0.17135751661370138
8.168000000000001,-0.03984921428835212
8.17,0.02188845507743091
8.172,0.19766332463567227
8.174,0.1640349786819312
8.176,0.0070890362408397665
8.178,0.02444496823782245
8.18,0.1505043997045427
8.182,-0.07207864876436818
8.184000000000001,-0.06836814134651098
8.186,-0.08415697974840863
8.188,0.027818826060277642
8.19,0.020447038329233662
8.192,0.1115586880942596
8.194,0.03128546861017776
8.196,0.05131392396221299
8.198,0.07791776376287009
8.2,-0.1322115685974531
8.202,0.037841487874333515
8.204,-0.13496262649621507
8.206,0.04018484498931842
8.208,-0.12322525512120025
8.21,-0.2316131005756535
8.212,0.0876832327308933
8.214,-0.13082865017544934
8.216,-0.03259250059246719
8.218,0.007102569621556823
8.22,0.024063926412825523
8.222,-0.14938539836730502
8.224,0.029694414909090333
8.226,-0.03368359260051165
8.228,-0.22673216726613898
8.23,-0.03326273640698374
8.232,0.3096575698418942
8.234,0.21957768284229445
8.236,0.3439058168834344
8.238,0.49898588167445185
8.24,0.6400681791979428
8.242,0.6648367397635075
8.244,0.8534729614962594
8.246,0.8576456641443043
8.248,1.0041126766467907
8.25,1.1100633982202575
8.252,0.9360867041038179
8.254,0.9997754586814249
8.256,0.8289060798839918
8.258000000000001,0.6206355671225768
8.26,0.6898855964171408
8.262,0.477438021828375
8.264,0.2919602231495278
8.266,0.30844458406810465
8.268,0.013593978120456096
8.27,0.26284593672910417
8.272,-0.02549838131021328
8.274000000000001,-0.15513729178571006
8.276,-0.09878538759625623
8.278,-0.2565870043136892
8.28,-0.10903361765090903
8.282,-0.013692295596977183
8.284,-0.045319792835093325
8.286,-0.3699517734663552
8.288,-0.011808279094748311
8.290000000000001,0.055152887876190174
8.292,-0.1036008421138776
8.294,0.08141705411220991
8.296,0.014129573799457567
8.298,0.14121027988749807
8.3,0.14701220830902428
8.302,0.17145716128919844
8.304,-0.023636686633521923
8.306000000000001,0.09742373558814882
8.308,-0.17693211072946022
8.31,0.09915926737298669
8.312,0.14311205372760624
8.314,0.17079640240479657
8.316,0.003980362319500028
8.318,0.01529019702671773
8.32,-0.05282820932209686
8.322000000000001,-0.00028555446328154977
8.324,0.12979099496534224
8.326,0.05890270420310206
8.328,0.045593140468379985
8.33,0.023091974521614284
8.332,0.08208051940646274
8.334,0.049466139879253135
8.336,-0.09371589343878883
8.338000000000001,0.2247739494339221
8.34,0.06433911607025948
8.342,-0.13910138903147068
8.344,-0.01247552193507936
8.346,-0.024987920673245935
8.348,0.08148866301773174
8.35,-0.007664424517748011
8.352,0.17512769942510428
8.354000000000001,-0.03239572871489939
8.356,-0.0703274317616138
8.358,-0.08916535979861322
8.36,0.19797923814795435
8.362,0.043010509399786144
8.364,-0.008734387156533824
8.366,0.13507577164474682
8.368,0.06177842615636951
8.370000000000001,0.13014662351734035
8.372,-0.12824683908056272
8.374,0.12474587203304058
8.376,-0.015307527778103847
8.378,0.004263551276585342
8.38,0.08046749205655998
8.382,0.1683455853443933
8.384,0.12138595012064257
8.386000000000001,0.05107178015407268
8.388,0.07575494352576034
8.39,0.15837708070737813
8.392,0.19406547599052332
8.394,0.06544154889192814
8.396,0.060179956584176936
8.398,0.2829852490595606
8.4,0.17256227694367857
8.402000000000001,0.06227044994983136
8.404,0.23410929760110466
8.406,0.08752401196792221
8.408,0.28544432200828607
8.41,0.23834860816304784
8.412,0.2892195723716779
8.414,0.06466455273283378
8.416,0.28986641055121715
8.418000000000001,0.09912240079285448
8.42,0.32278704709862793
8.422,0.27224753570162047
8.424,0.31023562404179444
8.426,0.23750588177360688
8.428,0.3601376712185619
8.43,0.4540958265972139
8.432,0.2672650409387426
8.434000000000001,0.5021705299777239
8.436,0.25315766737426754
8.438,0.285427961476041
8.44,0.29446966563787474
8.442,0.39066250890736276
8.444,0.5728581320721242
8.446,0.26267078828088897
8.448,0.39963720868862423
8.45,0.5292367727882563
8.452,0.3888593470111906
8.454,0.3003573336589289
8.456,0.21413683883834841
8.458,0.37473323220348664
8.46,0.347699837729018
8.462,0.2401805175211522
8.464,0.34132348847609245
8.466,0.34952319004888066
8.468,0.3948452227611081
8.47,0.40913371191724035
8.472,0.38221145494503356
8.474,0.3116760203691736
8.476,0.3975722876843538
8.478,0.2381305607297411
8.48,0.31875071603209115
8.482,0.28651975278677955
8.484,0.1525979237536222
8.486,0.18646184237976438
8.488,0.3256683531094524
8.49,0.1720183301816682
8.492,0.23644674686479614
8.494,0.024603292231199614
8.496,0.16003669778207139
8.498,0.23792740582652033
8.5,0.18142262446792848
8.502,0.1425624408228438
8.504,0.1467761298179328
8.506,0.1278442382719283
8.508000000000001,0.2343428326618315
8.51,0.18957841072091858
8.512,0.21807105557037246
8.514,0.09516635708617473
8.516,-0.03511378076820634
8.518,0.023775348026254375
8.52,-0.10197521120611636
8.522,0.021744262386068823
8.524000000000001,0.03679863713565651
8.526,0.029209115921960224
8.528,-0.029396350690060545
8.53,0.0424847349675624
8.532,-0.08213215195615473
8.534,0.025130101554419387
8.536,-0.055391891006721296
8.538,0.015524031706708352
8.540000000000001,0.04695821308023323
8.542,0.13318324729338143
8.544,-0.04813093552233766
8.546,0.06366025047373375
8.548,0.031198095558690107
8.55,-0.017148007522591723
8.552,-0.1625965769703446
8.554,0.10591277168213949
8.556000000000001,-0.1043060343028023
8.558,0.026852433270053946
8.56,-0.04346479158563575
8.562,0.005929106877147952
8.564,0.002430410096142162
8.566,0.203796866781016
8.568,-0.041472011403435094
8.57,0.13043955151038064
8.572000000000001,-0.04985124892663358
8.574,0.03288075718650471
8.576,-0.06175721408913834
8.578,0.10420698666194207
8.58,-0.024136635574946438
8.582,-0.17678542922746796
8.584,-0.13076260960481728
8.586,-0.09858078730132798
8.588000000000001,-0.04939515740831569
8.59,0.05052948563434611
8.592,0.10767363858342305
8.594,0.0357391046507553
8.596,0.03923010478261591
8.598,-0.0589730446088473
