Time,ECG
0.0,1.000000000000003
0.002,0.9777927406008012
0.004,0.9070613701322545
0.006,0.7251905305308026
0.008,0.5667545457208124
0.01,0.2699671908994665
0.012,0.14896314989699289
0.014,-0.08530598187777906
0.016,-0.08772539647847179
0.018000000000000002,-0.1497759869928382
0.02,-0.103976579294941
0.022,-0.1021263477861275
0.024,-0.11878239086357965
0.026000000000000002,-0.15650231170266174
0.028,-0.21005061039756912
0.03,-0.1742547254864882
0.032,-0.23249489469721515
0.034,-0.13654552237511428
0.036000000000000004,-0.06794818911639841
0.038,-0.041015395995715145
0.04,-0.007078469105260311
0.042,0.049662095622535145
0.044,0.06716075442141899
0.046,0.03401385552240442
0.048,0.01180029656155956
0.05,0.05136920477112514
0.052000000000000005,-0.01024701061715384
0.054,-0.02833126186710607
0.056,0.013575546557498718
0.058,0.006555108218787662
0.06,-0.007790631080000747
0.062,0.03166039202840973
0.064,0.04028871904672272
0.066,0.07018788284465759
0.068,0.07714978810263338
0.07,-0.007723024241781673
0.07200000000000001,0.04671559279425866
0.074,0.00011704913291569162
0.076,-0.04830179276934616
0.078,-0.0071046642518184586
0.08,0.03485734360407884
0.082,-0.014346094381641958
0.084,0.10912236593530368
0.08600000000000001,0.10770246287473717
0.088,0.0453342040184435
0.09,0.08209612848268037
0.092,0.034728080402337644
0.094,-0.08284600602761882
0.096,-0.03422063107252735
0.098,-0.038976646040209055
0.1,0.04970145526710895
0.10200000000000001,0.021365355578123787
0.10400000000000001,0.19796023149934505
0.106,0.08867816351104522
0.108,0.05236485870378525
0.11,0.03128991263994392
0.112,-0.03742369340582294
0.114,-0.030461306222709716
0.116,0.0020709567938537003
0.11800000000000001,-0.019864472365793452
0.12,0.09119436029599753
0.122,0.11436988826375197
0.124,0.10059997917943327
0.126,0.05216314348793008
0.128,0.04382889073002727
0.13,0.022174072148662453
0.132,0.05353959028555674
0.134,-0.056420845348951816
0.136,0.0659125981273016
0.138,-0.002906113891060491
0.14,0.1058688154984301
0.14200000000000002,0.07339662763280325
0.14400000000000002,0.05160278585005763
0.146,0.10982205553444402
0.148,0.006961249627998323
0.15,0.05971153305689955
0.152,0.07287296360887914
0.154,0.02498117953926319
0.156,0.020743155145935232
0.158,-0.0026119800765062387
0.16,0.05523835607748508
0.162,0.044816523645241024
0.164,0.07572726239370875
0.166,0.08654409130307181
0.168,0.1325135101115137
0.17,0.06750623280454593
0.17200000000000001,0.056755335957344
0.17400000000000002,0.03695465345414691
0.176,-0.019652899541311983
0.178,0.03595339077964466
0.18,0.005408564704081322
0.182,0.04545336936972524
0.184,0.17631796842173378
0.186,0.11013002581714057
0.188,0.0889709743087502
0.19,0.13741201214402182
0.192,-0.009342696568402808
0.194,-0.0029600305458766163
0.196,0.003813029298221828
0.198,-0.028228731372198404
0.2,0.06502123501511037
0.202,0.13351301607989394
0.20400000000000001,0.15567558856557254
0.20600000000000002,0.12415884719699152
0.20800000000000002,0.11709252125514175
0.21,0.02323233770665625
0.212,0.021175258707639002
0.214,0.02701404374479991
0.216,0.002167747858420433
0.218,0.07610201932980787
0.22,0.09541565919411019
0.222,0.0931657551808627
0.224,0.17834351292509146
0.226,0.07639139921186361
0.228,0.07209487893976274
0.23,0.03960949715816298
0.232,0.04303984560917045
0.234,0.05858196098182856
0.23600000000000002,0.03549102478570492
0.23800000000000002,0.07083890202228527
0.24,0.0886629267075604
0.242,0.15865708303213424
0.244,0.08595990473085413
0.246,0.0926047338564615
0.248,0.09710796431833645
0.25,0.11184491272937208
0.252,0.0403758116738138
0.254,0.09287057371754925
0.256,0.0307203433767895
0.258,0.10146956777586809
0.26,0.07560203128716075
0.262,0.0945086924515413
0.264,0.14097470186825634
0.266,0.12284352695400838
0.268,0.13904292610832064
0.27,0.16635112953398073
0.272,0.0890628099483392
0.274,0.08460706566472408
0.276,0.031074248072879382
0.278,0.10211551282144296
0.28,0.16361922042101118
0.28200000000000003,0.10588319983272924
0.28400000000000003,0.22274812895442048
0.28600000000000003,0.20208831057186813
0.28800000000000003,0.2412029294572951
0.29,0.23572292340849776
0.292,0.12322514480722674
0.294,0.13491191566830932
0.296,0.10384829902184717
0.298,0.19245922812043786
0.3,0.23361058536020576
0.302,0.3166058909513429
0.304,0.3340400242214793
0.306,0.3527373111890166
0.308,0.3483303364140648
0.31,0.3259155934344103
0.312,0.2878522568233839
0.314,0.306634293586097
0.316,0.34349897260076323
0.318,0.43164726312193763
0.32,0.5066001237040904
0.322,0.5452294392061854
0.324,0.6085709496693732
0.326,0.4849680653515708
0.328,0.5854205228668736
0.33,0.5430165513427024
0.332,0.5927639425376907
0.334,0.5323188092454955
0.336,0.6288600332173597
0.338,0.6356320975643258
0.34,0.6848940768455544
0.342,0.6647161246966855
0.34400000000000003,0.7364200394940382
0.34600000000000003,0.7012586999151175
0.34800000000000003,0.6535386998321797
0.35000000000000003,0.669327210998373
0.352,0.6544784132705654
0.354,0.5690596899013429
0.356,0.6359114386770677
0.358,0.6060170158464351
0.36,0.5545145264297338
0.362,0.608224611437098
0.364,0.5808303098703239
0.366,0.57790258838838
0.368,0.6124375703426302
0.37,0.5509264957554667
0.372,0.49269315445094025
0.374,0.44774191048109446
0.376,0.4319103705416789
0.378,0.43145515284848546
0.38,0.4173087623959454
0.382,0.4374944656709915
0.384,0.48491424318979887
0.386,0.42905058797470624
0.388,0.4737282621229117
0.39,0.400895192174124
0.392,0.3236644814023052
0.394,0.27900768131606674
0.396,0.28668377711150084
0.398,0.30230397877996296
0.4,0.29707612719197757
0.402,0.36028083925121246
0.404,0.36710251636697955
0.406,0.39977346949232767
0.40800000000000003,0.2914952070120965
0.41000000000000003,0.2693298608898406
0.41200000000000003,0.179500029946698
0.41400000000000003,0.18999194676646
0.41600000000000004,0.1689709902066674
0.418,0.25237811075954797
0.42,0.2329891461092441
0.422,0.27366662148467424
0.424,0.24914330329635215
0.426,0.25679123594307623
0.428,0.20328670660990011
0.43,0.15135416170462304
0.432,0.14407556406561736
0.434,0.11155949289784484
0.436,0.13567873485255097
0.438,0.2051905749441041
0.44,0.13887347698065955
0.442,0.21612072180089023
0.444,0.15401017725240063
0.446,0.1743361346161908
0.448,0.15150073718004903
0.45,0.16342903943247553
0.452,0.096382724861036
0.454,0.19799060194820284
0.456,0.04246651930312219
0.458,0.12426939195648229
0.46,0.06540435603898692
0.462,0.0952014117771241
0.464,0.11244488174759798
0.466,0.10103470065215747
0.468,0.09868544302625187
0.47000000000000003,0.07400796053186097
0.47200000000000003,-0.01712836120541819
0.47400000000000003,0.01871758674516382
0.47600000000000003,-0.038362629623204476
0.47800000000000004,-0.024789764211074303
0.48,0.016249793022317792
0.482,0.07928420381123474
0.484,0.1235587516554242
0.486,0.2205307026358306
0.488,0.3537691280523995
0.49,0.4760036067727571
0.492,0.5829118292581543
0.494,0.6766474067594492
0.496,0.9180425483708271
0.498,0.9723281588763943
0.5,1.1266449275299955
0.502,1.0946664497158323
0.504,1.1028105870814646
0.506,0.8589501571846321
0.508,0.578177269351404
0.51,0.41020610186516243
0.512,0.25989327039031973
0.514,0.05354288957360734
0.516,-0.030311574328030853
0.518,0.010649317870411512
0.52,0.015744981180468534
0.522,0.017154493291170105
0.524,-0.02860114313660724
0.526,-0.06950194824438145
0.528,-0.08152064815280936
0.53,-0.08425876432544578
0.532,-0.08189741102579245
0.534,-0.05336655671774741
0.536,0.009890342502745408
0.538,0.06511241803195772
0.54,0.12397881635252213
0.542,0.15992929071881057
0.544,0.15925737293268616
0.546,0.09379483117415924
0.548,0.12302955068618271
0.55,0.11436793591827392
0.552,0.13262309995509652
0.554,0.06618261661593107
0.556,0.12771706612171446
0.558,0.05352695453869584
0.56,0.09885743734342933
0.562,0.10774965291109131
0.5640000000000001,0.1613077514706896
0.5660000000000001,0.10493165952976384
0.5680000000000001,0.19995138690774597
0.5700000000000001,0.15297705677814755
0.5720000000000001,0.1037362503002109
0.5740000000000001,0.08001186542419968
0.5760000000000001,0.03594063615643634
0.578,0.07440841013865657
0.58,0.12486276620051087
0.582,0.1053567178768591
0.584,0.18400369116783635
0.586,0.1744780808182812
0.588,0.1461019704870932
0.59,0.12301609147621612
0.592,0.1083245832082005
0.594,0.062589512446182
0.596,0.010714029733547854
0.598,0.07879006424533873
0.6,0.12270966874553776
0.602,0.14349780521702923
0.604,0.18640431683771264
0.606,0.17695729718479944
0.608,0.17748950786846954
0.61,0.060803701090635986
0.612,0.04511520216027516
0.614,0.060711291028996986
0.616,0.07051833567679892
0.618,0.06763408822427058
0.62,0.1560478186147197
0.622,0.18363066030383504
0.624,0.1724935166745384
0.626,0.13610140501017728
0.628,0.11496709235725099
0.63,0.08206677382299855
0.632,0.06628799396688373
0.634,0.03921410924718394
0.636,0.11454020829331987
0.638,0.0926460837010396
0.64,0.13269611102883436
0.642,0.14122305918973801
0.644,0.15044086584858354
0.646,0.11999067404757065
0.648,0.1349702833913344
0.65,0.08448220843692711
0.652,0.10881665434991043
0.654,0.08206109894533327
0.656,0.11360246703985535
0.658,0.05691785977028898
0.66,0.10061550940755382
0.662,0.12230497725806913
0.664,0.08839465150989075
0.666,0.15112955522613208
0.668,0.16391531572891466
0.67,0.15354052431401125
0.672,0.07520719178567031
0.674,0.06998301310405491
0.676,0.05084284151735351
0.678,0.07844461742886008
0.68,0.06350749588654754
0.682,0.12490878195421559
0.684,0.18961931969670942
0.686,0.1366909172716275
0.6880000000000001,0.11021712046227662
0.6900000000000001,0.17109327870903213
0.6920000000000001,0.07318918417639858
0.6940000000000001,0.04147366235529486
0.6960000000000001,-0.017162949309238597
0.6980000000000001,0.12377395882091641
0.7000000000000001,0.06113392560714646
0.7020000000000001,0.15894103042034494
0.704,0.2003255332621586
0.706,0.14085892282641654
0.708,0.14293389186835212
0.71,0.0898877749312062
0.712,0.027940900777504024
0.714,0.02224631009002506
0.716,0.07182590761140044
0.718,0.04413188600626073
0.72,0.1306006228959491
0.722,0.16299314963577077
0.724,0.10896733621294957
0.726,0.20300553395626766
0.728,0.08980781121740845
0.73,0.038538940755828366
0.732,0.09273160059815061
0.734,0.06725307327838762
0.736,0.05204935747330522
0.738,0.1341438726936685
0.74,0.12266643181370179
0.742,0.06431530266514851
0.744,0.18937022219063904
0.746,0.08501467998138815
0.748,0.09903179705549939
0.75,0.13774767362229673
0.752,0.08485517416695232
0.754,0.0824322529527424
0.756,0.033662145060570026
0.758,0.11341159857201477
0.76,0.08096800338018573
0.762,0.112692524924257
0.764,0.1342520082789398
0.766,0.1602625025431049
0.768,0.20004704816886915
0.77,0.08100015623796655
0.772,0.14412693686399095
0.774,0.05797562502335391
0.776,0.06969352914097332
0.778,0.07759196949591471
0.78,0.1445695733230723
0.782,0.1200815548235447
0.784,0.2301537300712873
0.786,0.21919896126759775
0.788,0.2347618408817921
0.79,0.1878918566247686
0.792,0.11515768316690211
0.794,0.1654133409091852
0.796,0.10051857048472636
0.798,0.16264173423897824
0.8,0.24034065675112115
0.802,0.3083636434201202
0.804,0.3321745829659377
0.806,0.2942166812303705
0.808,0.38121785713853673
0.81,0.3282337146222088
0.812,0.27356025499411163
0.8140000000000001,0.29173735855422656
0.8160000000000001,0.3327371537575867
0.8180000000000001,0.4169712740813334
0.8200000000000001,0.44211242311897697
0.8220000000000001,0.514387709816169
0.8240000000000001,0.5383365408890697
0.8260000000000001,0.5848907471405052
0.8280000000000001,0.5656510775683143
0.8300000000000001,0.5433610830518874
0.8320000000000001,0.5241709871971068
0.834,0.5557192416113077
0.836,0.5516987916075735
0.838,0.6318720024751464
0.84,0.673646491484886
0.842,0.663022767214879
0.844,0.6379637084430313
0.846,0.68138237157231
0.848,0.6230557775422634
0.85,0.6474608306481918
0.852,0.5991582331561414
0.854,0.5986745539034499
0.856,0.5796427643601271
0.858,0.5852215839669025
0.86,0.5234191479148894
0.862,0.6069978624234005
0.864,0.5367833887404863
0.866,0.5461247158191427
0.868,0.5609693209052063
0.87,0.48623631843149456
0.872,0.4284124228283169
0.874,0.4395958447801975
0.876,0.40205476922879196
0.878,0.34771071367442125
0.88,0.3548199153180032
0.882,0.47548255422670105
0.884,0.40613500941972414
0.886,0.40525960910256514
0.888,0.40667414805215274
0.89,0.4118407492569148
0.892,0.2616303842356611
0.894,0.26148037469309554
0.896,0.18341526086435958
0.898,0.23847470932915035
0.9,0.255296169076
0.902,0.34634025194674983
0.904,0.33818213032594907
0.906,0.2712194563730407
0.908,0.26967602763046916
0.91,0.19281817998065748
0.912,0.16303210288208508
0.914,0.07877648165632745
0.916,0.17695451645801125
0.918,0.12519115084343693
0.92,0.2676259557563548
0.922,0.15893042770900967
0.924,0.22846565276909092
0.926,0.15478988923457251
0.928,0.17284490176904976
0.93,0.09937891617020075
0.932,0.059155402832417284
0.934,0.06362603194304935
0.936,0.07234508031250442
0.9380000000000001,0.07408545576880168
0.9400000000000001,0.138952467886889
0.9420000000000001,0.12026734715043341
0.9440000000000001,0.06537867472946252
0.9460000000000001,0.14563247299327076
0.9480000000000001,0.05273753802057488
0.9500000000000001,0.07945184581567989
0.9520000000000001,0.05147247756292483
0.9540000000000001,0.08706637544394974
0.9560000000000001,0.007316947376513734
0.9580000000000001,0.027795446779993873
0.96,0.08769255925766586
0.962,-0.00037131987838216404
0.964,-0.00046985025265394026
0.966,0.08046473610615305
0.968,0.0018615909143063526
0.97,-0.06979143535689913
0.972,-0.028698323420052883
0.974,-0.07462521431116968
0.976,-0.15213798339678714
0.978,-0.05245274021707775
0.98,-0.03659845661464457
0.982,-0.019993592777779352
0.984,0.054666399344153946
0.986,0.06210847592306039
0.988,0.35768778610546603
0.99,0.3368404131501733
0.992,0.47180880474572634
0.994,0.6320322186806664
0.996,0.7977561548615171
0.998,0.9252164280229976
1.0,1.027125729678056
1.002,1.048567286151732
1.004,0.92346382720753
1.006,0.7651290815301091
1.008,0.5568526937160739
1.01,0.3345485680124249
1.012,0.18465157387949482
1.014,-0.08041761781710742
1.016,-0.07406626535212496
1.018,-0.08233551633439985
1.02,-0.11915969226671878
1.022,-0.07179924750817171
1.024,-0.13171724599837706
1.026,-0.12371293032621355
1.028,-0.15754330164256944
1.03,-0.2279373990175897
1.032,-0.20779677120724943
1.034,-0.10354818063963608
1.036,-0.10623246916624292
1.038,-0.018053055547359146
1.04,-8.333788700408407e-05
1.042,0.08163649640091697
1.044,0.007038314453877252
1.046,0.050784257234902944
1.048,0.03055886756920843
1.05,-0.0004070166054316003
1.052,0.04512506226467691
1.054,-0.053819885411296016
1.056,-0.0372435971512976
1.058,0.02165378125576345
1.06,-0.014239322189369352
1.062,0.049316445657723224
1.064,0.040518963682915854
1.066,0.0073530071292187
1.068,0.07247232601048405
1.07,0.06633651412440163
1.072,-0.037038130202314404
1.074,0.004363927548813019
1.076,-0.07758209399688332
1.078,-0.06570380892903505
1.08,-0.048730663031358215
1.082,0.06623386876062701
1.084,0.0602993490680306
1.086,0.09045807994149951
1.088,0.027688100071909333
1.09,0.06565647777127548
1.092,-0.05307208374665903
1.094,-0.08755125186156625
1.096,-0.03407291757600607
1.098,-0.0647077334228833
1.1,0.020503779235015396
1.102,0.018646677257342203
1.104,0.13382169138555342
1.106,0.04466105572376833
1.108,-0.017593981213930243
1.11,-0.0029274272802388736
1.112,-0.05630236474931382
1.114,-0.10248328328470285
1.116,-0.07124868531063887
1.118,0.04782671479973813
1.12,0.013617205101614606
1.122,0.04892491174059796
1.124,0.034818237938765914
1.1260000000000001,0.026205042650942513
1.1280000000000001,0.0332002344497821
1.1300000000000001,-0.06254519332563385
1.1320000000000001,-0.03599466115469284
1.1340000000000001,-0.05217943337118741
1.1360000000000001,-0.04336053416139369
1.1380000000000001,-0.02043152675005678
1.1400000000000001,0.023218482037568322
1.1420000000000001,0.008374496415887613
1.1440000000000001,0.03727495678447479
1.1460000000000001,-0.043641748679862216
1.1480000000000001,0.029486676457401516
1.1500000000000001,-0.011260641646101506
1.1520000000000001,-0.009301497196688149
1.154,-0.030532664057464257
1.156,-0.034103898205835134
1.158,-0.07661325542421654
1.16,-0.04243644621797463
1.162,0.009155940467565415
1.164,0.028102882952049144
1.166,0.00495709839122797
1.168,0.0215392986143913
1.17,0.04816198392036464
1.172,-0.06678269459815159
1.174,-0.081059910891336
1.176,-0.012582708205133117
1.178,-0.10495825904191838
1.18,-0.025021216849769292
1.182,-0.025163882717361405
1.184,0.04262035031428208
1.186,0.022631797505751367
1.188,0.05307174037138559
1.19,-0.00612718243564301
1.192,-0.02458308877063871
1.194,-0.13285644202008368
1.196,-0.07723179801734985
1.198,-0.07578985853005982
1.2,-0.021882098825085676
1.202,0.030053521859205734
1.204,0.02913110054661892
1.206,0.09943649066544002
1.208,-0.05158003754842484
1.21,-0.05101903323390278
1.212,-0.05552733760935936
1.214,-0.09838232221576054
1.216,-0.05366868212326227
1.218,-0.053262179773127
1.22,-0.023998508383968623
1.222,0.01198828973431815
1.224,0.066977050514397
1.226,-0.024676564082125624
1.228,3.1648322065237766e-05
1.23,-0.043710037027226
1.232,-0.1566922080363131
1.234,0.012438291618436806
1.236,-0.05720593361962183
1.238,-0.04550106347889846
1.24,-0.034045783363868196
1.242,0.012905413122194169
1.244,-0.03349825194775881
1.246,-0.006046548412711499
1.248,0.01264480140482575
1.25,-0.03106542823518125
1.252,-0.0683741312519523
1.254,-0.015170691592022629
1.256,-0.05015887528821765
1.258,-0.061463178402598545
1.26,-0.036829041668267545
1.262,-0.016651948612269825
1.264,-0.015845861938054928
1.266,0.04165604696191669
1.268,0.0443895393215082
1.27,0.025754368883895783
1.272,-0.03481492057655554
1.274,0.012679322516924399
1.276,-0.08071751375728126
1.278,-0.0533179836897673
1.28,-0.07116375221703569
1.282,0.038546956780585
1.284,0.120200761828181
1.286,0.053482552111355226
1.288,0.13174274364480265
1.29,0.046121758477495174
1.292,0.028523229580310522
1.294,-0.011149869446024962
1.296,0.002300187126784271
1.298,0.00937323485653353
1.3,0.126061124893452
1.302,0.16729552098416103
1.304,0.20301931241817409
1.306,0.2363939063948802
1.308,0.20648035168089476
1.31,0.17250153615890773
1.312,0.12920577484971063
1.314,0.2325242142561491
1.316,0.18613123015768598
1.318,0.27246105824216443
1.32,0.3570580234078871
1.322,0.39443396373875605
1.324,0.39554677013065676
1.326,0.4659228599715599
1.328,0.4004740092894687
1.33,0.40937640004551523
1.332,0.44794586373735357
1.334,0.4382363776262171
1.336,0.40732624811065715
1.338,0.5338030847793053
1.34,0.5038226472679107
1.342,0.5680059150624635
1.344,0.5086591595796609
1.346,0.529220873503296
1.348,0.5568133929100827
1.35,0.5164106248540453
1.352,0.4253359511291048
1.354,0.493062556714628
1.356,0.44577494064195206
1.358,0.4497492831484061
1.36,0.4536629290025037
1.362,0.39401867880077884
1.364,0.45219020157523093
1.366,0.445997841175318
1.368,0.45294813295716907
1.37,0.39684124736058946
1.372,0.31865392099493983
1.374,0.31563545929983416
1.3760000000000001,0.25461236024794504
1.3780000000000001,0.24673654607456105
1.3800000000000001,0.25297248987317733
1.3820000000000001,0.31084479064375076
1.3840000000000001,0.3258982495018882
1.3860000000000001,0.29355254675570425
1.3880000000000001,0.342276729258695
1.3900000000000001,0.17356968713858884
1.3920000000000001,0.1919324405290198
1.3940000000000001,0.12493144916338647
1.3960000000000001,0.09901201513669322
1.3980000000000001,0.1124911740346418
1.4000000000000001,0.1512081531441156
1.4020000000000001,0.17138265740025344
1.4040000000000001,0.27610329556816493
1.4060000000000001,0.13016243866151667
1.408,0.1872876888105992
1.41,0.0788381789838167
1.412,0.06008210095164274
1.414,-0.03168640266895263
1.416,0.05353026718604978
1.418,0.05813216932930801
1.42,0.0467442111867464
1.422,0.13791431936608928
1.424,0.05273366217029134
1.426,0.08594854047771627
1.428,0.032156901847147645
1.43,0.010688145705192786
1.432,-0.06478165195202552
1.434,0.018440709151114787
1.436,-0.08220069308378863
1.438,0.05589206788929537
1.44,-0.02713549415702114
1.442,-0.009600380544639811
1.444,0.021798765477017718
1.446,-0.004970502937394913
1.448,-0.048263478700991645
1.45,-0.027006021326720316
1.452,-0.007007536389088825
1.454,-0.08716733896548245
1.456,-0.043669984633608994
1.458,-0.09962002397785293
1.46,-0.016953502576720028
1.462,-0.08311214177165391
1.464,-0.0898241826875103
1.466,-0.07530323434363828
1.468,-0.10295967606398061
1.47,-0.1069680373072378
1.472,-0.14767545821894928
1.474,-0.17288374791596964
1.476,-0.2011552357724451
1.478,-0.24757756354005722
1.48,-0.16374583601408887
1.482,-0.05198576419242288
1.484,-0.0032800519893476376
1.486,-0.023162854713614938
1.488,0.19195748335496512
1.49,0.28397620776669924
1.492,0.4009086516996814
1.494,0.5216882320464116
1.496,0.748178822736432
1.498,0.8269369019835185
1.5,0.9346610948246961
1.502,0.991124181016855
1.504,0.7971031005244587
1.506,0.6900886149042337
1.508,0.43955001977545105
1.51,0.2661709904496839
1.512,0.11769710269937807
1.514,-0.1791626282023417
1.516,-0.17314318092473494
1.518,-0.12872698614653427
1.52,-0.25265866351688304
1.522,-0.15550128214171388
1.524,-0.1953567980932565
1.526,-0.19243637437643665
1.528,-0.26003032459366615
1.53,-0.25918465701620597
1.532,-0.2558296730671874
1.534,-0.25187843560029494
1.536,-0.1429175494802378
1.538,-0.12538571502293983
1.54,-0.034755474461347996
1.542,-0.04381067039864543
1.544,0.0021273149684142775
1.546,-0.08599863964476681
1.548,-0.05224467581952198
1.55,-0.051066425577070085
1.552,-0.06156952949498741
1.554,-0.11015297877410177
1.556,-0.0353388991162048
1.558,-0.07383538525729313
1.56,-0.11745548280892647
1.562,-0.04187854210480048
1.564,-0.07456699774513947
1.566,0.013690856343628571
1.568,-0.001700710102007636
1.57,-0.029820535774863825
1.572,-0.06063755709433489
1.574,-0.08192437545139879
1.576,-0.1545132737143324
1.578,-0.11129220763613487
1.58,-0.0323376918887658
1.582,-0.04141899286211941
1.584,-0.022199477902463773
1.586,0.01661939405764648
1.588,0.009276367134473596
1.59,-0.022459040512954657
1.592,-0.09227558093391149
1.594,-0.14409758892916025
1.596,-0.12634744722633395
1.598,-0.08894396233513967
1.6,-0.07199790096538466
1.602,0.017995961459373738
1.604,0.017551696984302635
1.606,0.021285625162689902
1.608,-0.006843114041252141
1.61,-0.06697527879814309
1.612,-0.11996743455489556
1.614,-0.12113466720410115
1.616,-0.10313818815546086
1.618,-0.054440136575009374
1.62,-0.02557655418612017
1.622,0.010696699660899627
1.624,0.00949513844613599
1.6260000000000001,-0.02448223188305635
1.6280000000000001,-0.05502617531721975
1.6300000000000001,-0.06407354242057559
1.6320000000000001,-0.09050120964815443
1.6340000000000001,-0.08815764923979778
1.6360000000000001,-0.08675637224051888
1.6380000000000001,-0.07742683162716674
1.6400000000000001,-0.015442341688218602
1.6420000000000001,0.018938184616347126
1.6440000000000001,-0.04366064325416723
1.6460000000000001,-0.03466650689312187
1.6480000000000001,-0.03936349173879659
1.6500000000000001,-0.025957414103376552
1.6520000000000001,-0.10873372034258225
1.6540000000000001,-0.024680366119654726
1.6560000000000001,-0.08967832425371003
1.6580000000000001,-0.027866328245322536
1.6600000000000001,-0.048085303679194114
1.6620000000000001,-0.0929440090396998
1.6640000000000001,0.006013263854425407
1.666,-0.03161790643592561
1.668,-0.014918556530602374
1.67,0.0028948706098152026
1.672,-0.016249177972649007
1.674,-0.08144634371843286
1.676,-0.15170835332486407
1.678,-0.09459295353348852
1.68,-0.049970348194924526
1.682,-9.038291261122613e-05
1.684,0.039684625308112835
1.686,0.007045215907954261
1.688,-0.002829922734723777
1.69,-0.00939131566995541
1.692,-0.07159665684968253
1.694,-0.09925554889084423
1.696,-0.17301803541769556
1.698,-0.04088754781384282
1.7,-0.04232756267594132
1.702,0.03136261410907319
1.704,0.05461539848366383
1.706,0.031667725586227304
1.708,-0.02504851308367677
1.71,-0.07113959548280886
1.712,-0.03824007807404052
1.714,-0.16416857116811012
1.716,-0.05513901536381057
1.718,-0.043859453693537664
1.72,-0.03646601142884845
1.722,0.04788359606465183
1.724,0.015010229194724556
1.726,0.05278435262813599
1.728,-0.10918683542900416
1.73,-0.011539678620411373
1.732,-0.07631211788328562
1.734,-0.0691862058083675
1.736,-0.030836912779140236
1.738,-0.039007022561354174
1.74,-0.0015628910453739297
1.742,0.017323232125821222
1.744,-0.030514470668905138
1.746,0.004034227925081219
1.748,0.02609572113639087
1.75,-0.07132533874862522
1.752,0.0019144387315989213
1.754,-0.04873631685643286
1.756,-0.038050419883675204
1.758,0.006877373184484323
1.76,-0.06124169937893004
1.762,-0.017165340605235488
1.764,0.0692039588690183
1.766,0.021029483002815885
1.768,0.004946638592971432
1.77,0.05473243554557823
1.772,0.008463220527745586
1.774,0.016561561692903036
1.776,-0.0836404555861979
1.778,-0.05985062544712924
1.78,0.025195565908986854
1.782,0.03974100729055389
1.784,0.13798175465286255
1.786,0.13784699833670763
1.788,0.09258112217702133
1.79,0.06301547360609767
1.792,0.09038616327230788
1.794,-0.005451279180867564
1.796,0.04236796558459956
1.798,0.0706416165600305
1.8,0.1729721974140916
1.802,0.1444792762984292
1.804,0.2995582544162042
1.806,0.2553013651118056
1.808,0.20706497166409513
1.81,0.2536780953414317
1.812,0.2145399501924935
1.814,0.1470010029635805
1.816,0.2784959307080896
1.818,0.29604474445708756
1.82,0.3995425440758427
1.822,0.42188731669452273
1.824,0.4647625432372295
1.826,0.4699916964825903
1.828,0.4696809807561813
1.83,0.37938134704322113
1.832,0.4920077705033882
1.834,0.4959357037527191
1.836,0.5261564976499822
1.838,0.5308367915979317
1.84,0.597492704693935
1.842,0.5802085217750285
1.844,0.5610965672363712
1.846,0.622557276404781
1.848,0.5351454912999591
1.85,0.6110684356314526
1.852,0.5353495119483399
1.854,0.5271968955048999
1.856,0.4773836446322284
1.858,0.4778129108063062
1.86,0.5268707826633618
1.862,0.45441513680601153
1.864,0.5415801663487253
1.866,0.47667365447763327
1.868,0.49171641788534526
1.87,0.4767898840461055
1.872,0.3892992599406534
1.874,0.3578276746734146
1.8760000000000001,0.28994926370893515
1.8780000000000001,0.3159792585912753
1.8800000000000001,0.36404117004385683
1.8820000000000001,0.34763272414153695
1.8840000000000001,0.3615842696985276
1.8860000000000001,0.3823118874679898
1.8880000000000001,0.3470156330081246
1.8900000000000001,0.3122147617009508
1.8920000000000001,0.24533594497769382
1.8940000000000001,0.1909714777174018
1.8960000000000001,0.1756311513123948
1.8980000000000001,0.18150875777558012
1.9000000000000001,0.2502901889012352
1.9020000000000001,0.2723499456769608
1.9040000000000001,0.2615175968426232
1.9060000000000001,0.25590039875644544
1.9080000000000001,0.2512595520768406
1.9100000000000001,0.1760918843993392
1.9120000000000001,0.13453748057498363
1.9140000000000001,0.07566377112029662
1.9160000000000001,0.07930653962531226
1.9180000000000001,0.15157088418842027
1.92,0.18074613011523577
1.922,0.1470309240676515
1.924,0.16179752728196803
1.926,0.13627455540581032
1.928,0.1425428806297081
1.93,0.05224481450558817
1.932,0.054902939252036015
1.934,0.0481916511425944
1.936,0.08076475837373658
1.938,0.073909703837605
1.94,0.08850613385590932
1.942,0.15729669798030108
1.944,0.05298703620195237
1.946,0.07346128549074246
1.948,0.07376855191471182
1.95,0.0678945170895505
1.952,0.007789955036123952
1.954,0.06128067194113378
1.956,0.034695353051240975
1.958,0.047517572821250055
1.96,0.0006657501355022133
1.962,0.004695976708516705
1.964,0.06860433746175794
1.966,-0.007414687382073657
1.968,0.041193829794918105
1.97,-0.056172701142859174
1.972,-0.06353643041764354
1.974,-0.03628918514834409
1.976,-0.15104269020029176
1.978,-0.055357010381974533
1.98,-0.07855374319893531
1.982,-0.003575955701725508
1.984,0.07300930116042934
1.986,0.10820389198391836
1.988,0.32393674024679975
1.99,0.36627407994145006
1.992,0.4819393696432728
1.994,0.6810181682123965
1.996,0.7957601764375363
1.998,0.9572365030196205
2.0,1.0441119897221678
2.0020000000000002,1.0456924296155314
2.004,0.9534136747149848
2.0060000000000002,0.7897289781532302
2.008,0.5858316827754567
2.0100000000000002,0.3310581643098519
2.012,0.21304388566196297
2.0140000000000002,-0.026103669375689705
2.016,-0.08895858763290139
2.0180000000000002,-0.0724758106059005
2.02,-0.04293193655114455
2.0220000000000002,-0.042125889712002346
2.024,-0.08181887215601762
2.0260000000000002,-0.149593614524352
2.028,-0.10322443769770037
2.0300000000000002,-0.1971698996890339
2.032,-0.11714754773462974
2.0340000000000003,-0.08546287611895845
2.036,-0.04686182402107464
2.0380000000000003,-0.049989239900695474
2.04,0.15092343629559243
2.0420000000000003,0.02878429851037511
2.044,0.12031273696771158
2.0460000000000003,0.09792828862750214
2.048,0.04900077030897076
2.05,0.06831235920592967
2.052,0.02903672982264479
2.054,0.07938258750841987
2.056,0.054784656574550374
2.058,-0.019847825967501585
2.06,0.07601973257237328
2.062,0.05836663894400887
2.064,0.09874876699224788
2.066,0.12790721294009552
2.068,0.11354218561743226
2.07,0.06399077427833721
2.072,0.10024165028701712
2.074,0.044031281503457906
2.076,0.004753173034784191
2.078,-0.005147231860088135
2.08,0.07043713251428382
2.082,0.08278280376887404
2.084,0.11241156929006879
2.086,0.14032628951045298
2.088,0.15334378173714638
2.09,0.09712851727158087
2.092,0.010312282809884867
2.094,0.03183102327864049
2.096,0.0033468363885607103
2.098,0.018608318400187243
2.1,0.0797209135592414
2.102,0.14218197651825068
2.104,0.14176573609570323
2.106,0.18557331169502567
2.108,0.1029263633619398
2.11,0.07964303395249603
2.112,0.0006455317370837564
2.114,0.006353093560545425
2.116,0.02755552645717511
2.118,0.058046834378146214
2.12,0.14888693553381754
2.122,0.17028244569510148
2.124,0.12817456745409722
2.126,0.08370570233520558
2.128,0.09197938200615531
2.13,0.10001603356194763
2.132,0.012314884605226825
2.134,0.07256257660745732
2.136,0.058920026494268744
2.138,0.10285949608107565
2.14,0.1004156079562838
2.142,0.1427621547832649
2.144,0.05257146016784561
2.146,0.1261000828244474
2.148,0.1096100151898716
2.15,0.1216088013429605
2.152,0.03602093253575964
2.154,0.13951345301002802
2.156,-0.001417334385191038
2.158,0.12023133991186234
2.16,0.07303812664001565
2.162,0.08020118812489888
2.164,0.13896420379307378
2.166,0.15770345202121666
2.168,0.11574891786234702
2.17,0.14791120916828995
2.172,0.07485215708015439
2.174,0.05545157729029336
2.176,0.03804741566297116
2.178,0.06726696946212518
2.18,0.06664877749508803
2.182,0.13398319888872764
2.184,0.11885573495430321
2.186,0.1820362733489966
2.188,0.20026673080731072
2.19,0.116416039833373
2.192,0.05235336370022628
2.194,0.06051375481536657
2.196,0.01863446997178918
2.198,0.05952924482462412
2.2,0.11272756734184906
2.202,0.12988739133000388
2.204,0.1779904392214722
2.206,0.24249727700228382
2.208,0.10280367248022973
2.21,0.10752804923476939
2.212,0.05896871093171254
2.214,-0.01168632581670296
2.216,0.11797063773612264
2.218,0.03501491344983021
2.22,0.19026596863480502
2.222,0.18881727171693297
2.224,0.14095062674338496
2.226,0.14552378388021556
2.228,0.10596904017581293
2.23,0.09182999796866934
2.232,0.04821561293476724
2.234,0.11356556732063855
2.236,0.0930386750807042
2.238,0.13488018446337133
2.24,0.12493737489852354
2.242,0.20370410728963462
2.244,0.15022189903750896
2.246,0.10540427995218242
2.248,0.12048023688357859
2.25,0.14634029046822367
2.2520000000000002,0.1324280582623375
2.254,0.10548221797350282
2.2560000000000002,0.11071821511262593
2.258,0.09267796945883927
2.2600000000000002,0.13971148089103272
2.262,0.12245769074446969
2.2640000000000002,0.22435825210977303
2.266,0.13647794505397945
2.2680000000000002,0.17260676295247138
2.27,0.20941940324884917
2.2720000000000002,0.14658984675682937
2.274,0.13032902831446458
2.2760000000000002,0.055463670911813936
2.278,0.14326431046145013
2.2800000000000002,0.19573766661466402
2.282,0.1463699553084403
2.2840000000000003,0.2977833255372109
2.286,0.22748599625458543
2.2880000000000003,0.3032156513601093
2.29,0.18647954277491335
2.2920000000000003,0.18306071285313658
2.294,0.20008942926792356
2.2960000000000003,0.16433855407999454
2.298,0.1990306084957726
2.3000000000000003,0.28083252293181193
2.302,0.36417267796111036
2.3040000000000003,0.3893134509443992
2.306,0.40908791525323557
2.308,0.3750021440425224
2.31,0.336485573748164
2.312,0.34495377006484274
2.314,0.3496878904595248
2.316,0.3741895152576828
2.318,0.4704343064770833
2.32,0.5377374226724172
2.322,0.6097353064491596
2.324,0.5853563447471529
2.326,0.589979726806307
2.328,0.6092824399762246
2.33,0.565535967351922
2.332,0.6315952802436101
2.334,0.57601825234303
2.336,0.7207071584763406
2.338,0.6548916430599808
2.34,0.6916971299551796
2.342,0.7830237707292732
2.344,0.7115409313428845
2.346,0.6712694656847439
2.348,0.7512832257955796
2.35,0.7047111886634146
2.352,0.6710182688166956
2.354,0.7195580860983225
2.356,0.5956661872764506
2.358,0.6380766632870271
2.36,0.6270102809339906
2.362,0.6189725168875306
2.364,0.6383852886194868
2.366,0.6270811660353958
2.368,0.5945012303636216
2.37,0.6365919857693553
2.372,0.5329155649161087
2.374,0.4715565749925944
2.376,0.47580362397323733
2.378,0.4605498178035542
2.38,0.4133498959202879
2.382,0.5205072799601346
2.384,0.490971946670941
2.386,0.5048776506357493
2.388,0.5160588782913854
2.39,0.4198429736111217
2.392,0.38570654403237337
2.394,0.32371787005203684
2.396,0.32286254303837686
2.398,0.33991590582364145
2.4,0.3179596743175172
2.402,0.37871172923708313
2.404,0.4061711580899309
2.406,0.4247294787580251
2.408,0.3762255223584074
2.41,0.24092205235687444
2.412,0.2800922168336633
2.414,0.19282013932377634
2.416,0.25408163455419625
2.418,0.2537941566991618
2.42,0.22991046730986256
2.422,0.3434251235388635
2.424,0.32234016800740267
2.426,0.2743879340147927
2.428,0.23013091603702834
2.43,0.2126049766895165
2.432,0.12644722761461027
2.434,0.18939289221969335
2.436,0.24195627911686643
2.438,0.14564523444004646
2.44,0.20829475210082768
2.442,0.20617952626858438
2.444,0.23519544292836367
2.446,0.18006464937218852
2.448,0.2013135300635104
2.45,0.15592139453845277
2.452,0.1934597815409843
2.454,0.1715429065911358
2.456,0.13985923712602694
2.458,0.1239049960976954
2.46,0.149503480654628
2.462,0.14657272379593586
2.464,0.09606761046526804
2.466,0.15294349532160464
2.468,0.1330485712402578
2.47,0.09275861456823878
2.472,0.0625080775698488
2.474,0.010429311751860727
2.476,-0.05488527635479059
2.478,0.07953751517606872
2.48,0.025224222342953063
2.482,0.12285117029977005
2.484,0.22103819945690517
2.486,0.18142039734194151
2.488,0.44290615476920486
2.49,0.4538217768174016
2.492,0.615234496061526
2.494,0.75354752778701
2.496,0.9185751291500605
2.498,1.01466544050854
2.5,1.1334456510912456
2.5020000000000002,1.1940284631076843
2.504,1.0619435089866804
2.5060000000000002,0.874838858693668
2.508,0.6745447369076646
2.5100000000000002,0.4525387578290563
2.512,0.3005792710279864
2.5140000000000002,0.06575272385163992
2.516,0.0547906713386047
2.5180000000000002,0.01015597818206206
2.52,0.045788436903517464
2.5220000000000002,0.016849016072539157
2.524,0.07253573774728281
2.5260000000000002,-0.027910571538565007
2.528,-0.09026178355524757
2.5300000000000002,-0.07284760840743718
2.532,-0.044399354349037884
2.5340000000000003,-0.013189306256239965
2.536,0.0614409002565705
2.5380000000000003,0.08329842911165292
2.54,0.16833918184158206
2.5420000000000003,0.15676155546540532
2.544,0.16500206962180605
2.5460000000000003,0.18241447960619112
2.548,0.13798028943868407
2.5500000000000003,0.17095608931064804
2.552,0.1342870544937257
2.5540000000000003,0.18109648621044927
2.556,0.08090396268443811
2.5580000000000003,0.15334358929277625
2.56,0.09221240146124594
2.562,0.17067546829773209
2.564,0.1485716578842375
2.566,0.20348742703493153
2.568,0.1861524610354094
2.57,0.2051738717522245
2.572,0.10417354014750463
2.574,0.10525738930103194
2.576,0.12746512229863666
2.578,0.045585722380720714
2.58,0.12491440242107221
2.582,0.1778967832782672
2.584,0.19518824337149765
2.586,0.2414036130292317
2.588,0.20789872557409175
2.59,0.09834867301337408
2.592,0.15803771752018148
2.594,0.030318965324797727
2.596,0.11442287442782151
2.598,0.07890262381575408
2.6,0.14059276411561777
2.602,0.21992604059659754
2.604,0.20620273585256058
2.606,0.2245684842412294
2.608,0.18458486443039865
2.61,0.1409586320854948
2.612,0.06631606451285564
2.614,0.06778808405448977
2.616,0.10401518899926074
2.618,0.08918355877543703
2.62,0.1838748036653628
2.622,0.21819352437202771
2.624,0.18285591111359384
2.626,0.20242613033548298
2.628,0.10793634876457238
2.63,0.15461274596497768
2.632,0.07732069260516267
2.634,0.09916590237250317
2.636,0.13507245535802323
2.638,0.11406809597458084
2.64,0.17207233608009923
2.642,0.14905089194498078
2.644,0.1847430188186434
2.646,0.1590843875008071
2.648,0.1598304674377186
2.65,0.13443518529620702
2.652,0.13475123976343786
2.654,0.10033536108759675
2.656,0.11182919081760628
2.658,0.13236710293442833
2.66,0.08672668474362596
2.662,0.18545862277156935
2.664,0.1246170670847071
2.666,0.19567873421350354
2.668,0.15548211448477736
2.67,0.17637771599726246
2.672,0.10459339524361248
2.674,0.15498588058921642
2.676,0.03846297165816353
2.678,0.0780332352862955
2.68,0.11410510233985548
2.682,0.15839085639282605
2.684,0.1607714721191579
2.686,0.2531703874641691
2.688,0.17612641692295972
2.69,0.12038802843938044
2.692,0.0957481918646956
2.694,0.08330957489579315
2.696,0.0555742777867893
2.698,0.10153864775209588
2.7,0.10925582838328587
2.702,0.23160800733425108
2.704,0.13592733476133287
2.706,0.20040806431813235
2.708,0.16581567982188536
2.71,0.11659052490793467
2.712,0.09634857549783282
2.714,0.039142757208191666
2.716,0.08013057304701912
2.718,0.1095272830753821
2.72,0.1281010351444955
2.722,0.21210167423180112
2.724,0.17163243629081693
2.726,0.14210426876625498
2.728,0.14363885023230777
2.73,0.0769052362648125
2.732,0.10679804700477702
2.734,0.044565314494537496
2.736,0.14003273321161303
2.738,0.14769736665168512
2.74,0.14126617018107498
2.742,0.1468091596169957
2.744,0.15300370576826264
2.746,0.15562956426070573
2.748,0.10308034953372992
2.75,0.12647543600045208
2.7520000000000002,0.12842624693293458
2.754,0.08687458204841501
2.7560000000000002,0.1347778118360484
2.758,0.09652245198427961
2.7600000000000002,0.1384232859722579
2.762,0.13194683996087098
2.7640000000000002,0.11992441978613447
2.766,0.21579770804155757
2.7680000000000002,0.13981921175776987
2.77,0.22471730665314996
2.7720000000000002,0.11601982583303794
2.774,0.14213487787187093
2.7760000000000002,0.08333162123900201
2.778,0.15173793723160514
2.7800000000000002,0.0790507248443453
2.782,0.16457502551116268
2.7840000000000003,0.27457856465022357
2.786,0.2253512988015522
2.7880000000000003,0.2650663408254441
2.79,0.19701833932971008
2.7920000000000003,0.15843111089822948
2.794,0.1527413681973548
2.7960000000000003,0.14327054581354498
2.798,0.18848796824522532
2.8000000000000003,0.3116370179376253
2.802,0.3056499300499139
2.8040000000000003,0.3587872756022719
2.806,0.40100391096686316
2.8080000000000003,0.3006082244646447
2.81,0.3565461718840481
2.8120000000000003,0.33079142571316583
2.814,0.3109054201858339
2.816,0.3540593906704474
2.818,0.3884022976416424
2.82,0.541695689176223
2.822,0.5578264621162816
2.824,0.5840592949885046
2.826,0.5523312464639074
2.828,0.5684492364428774
2.83,0.5230165212732052
2.832,0.5856256934061145
2.834,0.5635977143707787
2.836,0.609809771338664
2.838,0.6825617225713407
2.84,0.6623756344130439
2.842,0.6696916410968882
2.844,0.6907993273285714
2.846,0.7021133801612409
2.848,0.6437212988093095
2.85,0.6693059109045416
2.852,0.6107121143840537
2.854,0.6214288127924744
2.856,0.6514647896892986
2.858,0.571539912612947
2.86,0.5354042174757623
2.862,0.5695821800949079
2.864,0.600243923154432
2.866,0.6055086779146702
2.868,0.5611397894709644
2.87,0.5132189597522104
2.872,0.5243812649046011
2.874,0.41324224936524345
2.876,0.4277162552398464
2.878,0.3356995528117904
2.88,0.4294261690995405
2.882,0.41098385041858126
2.884,0.4342316156972451
2.886,0.4873018843726502
2.888,0.4287085898439573
2.89,0.3967805127222336
2.892,0.2903815501614757
2.894,0.26978731608855516
2.896,0.2492430702323787
2.898,0.25461748769435977
2.9,0.3086660133397326
2.902,0.28959488437180175
2.904,0.33543824450653137
2.906,0.33792198504706333
2.908,0.32219874715714564
2.91,0.21617054017198345
2.912,0.15586847230683915
2.914,0.13779174000107036
2.916,0.1576922309769559
2.918,0.1384426263389763
2.92,0.268485483555803
2.922,0.2015672289159059
2.924,0.2680508428081245
2.926,0.189607181230779
2.928,0.15828042062008774
2.93,0.1092275682180087
2.932,0.08396965140481683
2.934,0.11712423635859923
2.936,0.09984642343090552
2.938,0.10587318670563502
2.94,0.11538649814000028
2.942,0.15323927465460271
2.944,0.12594852527415204
2.946,0.10819056491711505
2.948,0.11360592374327683
2.95,0.06664177512894601
2.952,0.12847373706882836
2.954,0.052166336903813657
2.956,0.06871127783180234
2.958,0.024661954518672622
2.96,0.05091726594736129
2.962,0.04493760067365203
2.964,0.06852837818748629
2.966,0.07002281691250038
2.968,-0.017357578364656748
2.97,-0.00045679358201739656
2.972,-0.015593357111959968
2.974,-0.09070995812997454
2.976,-0.07683134753365821
2.978,-0.07697531773277806
2.98,-0.04016886301076301
2.982,0.013206985889291565
2.984,0.09474647571966405
2.986,0.08174178580555264
2.988,0.3745420038483467
2.99,0.3724072851251612
2.992,0.49878569544766804
2.994,0.6626021282396728
2.996,0.7649459037980678
2.998,0.9776415559598212
3.0,1.073905961357177
3.0020000000000002,1.0080727945358399
3.004,0.9709562639437607
3.0060000000000002,0.7546334549113077
3.008,0.5762238395353835
3.0100000000000002,0.37874453878097053
3.012,0.17550508852842736
3.0140000000000002,-0.06073309162311602
3.016,-0.07031266024519704
3.0180000000000002,-0.07052009920231216
3.02,-0.08475922836719472
3.0220000000000002,-0.05558805014935346
3.024,-0.08684433196799111
3.0260000000000002,-0.14104451211558833
3.028,-0.14297160671154555
3.0300000000000002,-0.17093848258561417
3.032,-0.18701924758957755
3.0340000000000003,-0.10675875248408609
3.036,-0.10076495993423301
3.0380000000000003,-0.0006248554074853099
3.04,0.050385448712904284
3.0420000000000003,0.07114959555522812
3.044,0.04844997556872075
3.0460000000000003,0.05698228617511617
3.048,0.05001829291281619
3.0500000000000003,0.012428715419242137
3.052,0.041719949453157996
3.0540000000000003,-0.01419507823688521
3.056,0.005258904108812307
3.0580000000000003,-0.0010634320493098327
3.06,0.024616659054936964
3.0620000000000003,-0.0062318389803257684
3.064,0.07338255739020033
3.0660000000000003,0.06932543055927479
3.068,0.12050636482840346
3.0700000000000003,0.0057721296451764825
3.072,0.003179337159176114
3.074,0.003635237061857137
3.076,-0.030720973035059905
3.078,-0.050658134071449146
3.08,0.0010781610497817389
3.082,0.06578601695678415
3.084,0.039712780575213005
3.086,0.11022911148135084
3.088,0.1034182570223019
3.09,0.0375177411399716
3.092,-0.01460974888187105
3.094,-0.07362824632817427
3.096,-0.082907344920843
3.098,9.83753039472679e-05
3.1,-0.006139770675245699
3.102,0.03463202757544046
3.104,0.10471109662189847
3.106,0.10189902831898381
3.108,0.07748758576348516
3.11,-0.03851038880562982
3.112,-0.06374916489449468
3.114,-0.02149722739835174
3.116,-0.09621035849872342
3.118,0.04611806139054644
3.12,0.04964425110302808
3.122,0.016291220519624366
3.124,0.09104640061759448
3.126,0.04687491533062776
3.128,-0.010994660707499687
3.13,-0.022985616346307858
3.132,-0.044293220261734004
3.134,-0.02209541084751706
3.136,-0.030259515910430444
3.138,0.02660214898390106
3.14,0.03297152848508283
3.142,0.02397405318642282
3.144,-0.008617662957087515
3.146,0.06963153554536856
3.148,0.005928411426279921
3.15,-0.03689970509561262
3.152,-0.01634288780727102
3.154,-0.013011741901672993
3.156,-0.01364007336086153
3.158,-0.02937815161849706
3.16,-0.019007360681364466
3.162,-0.02182838839507279
3.164,0.01773880386472709
3.166,0.10511825121977976
3.168,0.019988257405249468
3.17,-0.02061335218947915
3.172,0.010612143698240779
3.174,-0.0045090717530651275
3.176,-0.09885114842680306
3.178,-0.042390877665245665
3.18,-0.07863192327709581
3.182,0.03093386302166759
3.184,0.0308466522314544
3.186,0.07327350953658107
3.188,0.032274108204574076
3.19,0.005942673690617194
3.192,-0.03581192835655263
3.194,-0.0947635650906891
3.196,-0.08329093170206603
3.198,-0.017469425549972627
3.2,-0.05976629754891513
3.202,0.06781025149108591
3.204,0.03106821191519192
3.206,0.08858132926592238
3.208,-0.004682294908546904
3.21,-0.015336262841276874
3.212,-0.12402643119537388
3.214,-0.013008681698738062
3.216,-0.13573970684029316
3.218,-0.00011225392745017881
3.22,0.010643394254232814
3.222,0.0518308167596655
3.224,0.007897604288875842
3.226,0.025324694138788725
3.228,-0.020754609708149463
3.23,-0.03404202416021472
3.232,-0.016840753807888062
3.234,-0.09710889934438591
3.236,-0.02484209005508054
3.238,-0.07469359789778447
3.24,-0.024564925782032867
3.242,0.06994158978323406
3.244,-0.008592503239457896
3.246,-0.015821599420196654
3.248,-0.018422890356914697
3.25,0.0023462132220210333
3.2520000000000002,-0.04490650440565027
3.254,-0.006480083163231211
3.2560000000000002,-0.04493537637940841
3.258,-0.02570250449767062
3.2600000000000002,-0.07701424946837376
3.262,-0.0011139051160618599
3.2640000000000002,0.053682560468886364
3.266,-0.010369432800099672
3.2680000000000002,0.05590398734240601
3.27,0.009485564623578167
3.2720000000000002,-0.041704635137443755
3.274,0.030778100022779593
3.2760000000000002,-0.06514069093410542
3.278,-0.05472792580343647
3.2800000000000002,-0.04122569295777935
3.282,0.09311271152837619
3.2840000000000003,0.04060747887118725
3.286,0.08190709589922322
3.2880000000000003,0.18328976569765873
3.29,0.0657441525009449
3.2920000000000003,0.023549171204082158
3.294,-0.008706646786698306
3.2960000000000003,0.00631000629992819
3.298,0.0181492156475484
3.3000000000000003,0.15671681626778344
3.302,0.09411219035972643
3.3040000000000003,0.28574659509660205
3.306,0.2517384522885887
3.3080000000000003,0.191263338490265
3.31,0.18990192251746935
3.3120000000000003,0.1339528831468886
3.314,0.1873070557779789
3.3160000000000003,0.23244001987312976
3.318,0.2580749023396121
3.3200000000000003,0.38269557439013113
3.322,0.3729568389104351
3.3240000000000003,0.46310197028263295
3.326,0.4271926544787112
3.3280000000000003,0.45713218237676856
3.33,0.34663761101260326
3.332,0.48535920370860913
3.334,0.3981531596873012
3.336,0.45773910135506274
3.338,0.47099068898777063
3.34,0.5769696344183843
3.342,0.506066333254103
3.344,0.5617872538259918
3.346,0.5696291411295374
3.348,0.5456513727372891
3.35,0.4985694275429179
3.352,0.5132028022387572
3.354,0.4311739518842961
3.356,0.4821771941387918
3.358,0.45090149332868645
3.36,0.44130181176182537
3.362,0.40211832392913227
3.364,0.44979447461855604
3.366,0.4934728696317377
3.368,0.382136139768553
3.37,0.38904910309739127
3.372,0.40259371522153975
3.374,0.2971056053592343
3.376,0.23340174538279404
3.378,0.25563105960724747
3.38,0.2688889130846106
3.382,0.3443821990144292
3.384,0.2702120955627087
3.386,0.3085926791379493
3.388,0.33148065362007884
3.39,0.23739016446675745
3.392,0.1696468970662281
3.394,0.06781222233425381
3.396,0.13607014382407906
3.398,0.1388522902123989
3.4,0.1300518343055655
3.402,0.2344768880374563
3.404,0.1822901216541944
3.406,0.24527474818962192
3.408,0.13032422852132036
3.41,0.09138330476307305
3.412,0.06461767793544215
3.414,-0.0014772902893282341
3.416,0.014441648473802058
3.418,0.05814111828459326
3.42,0.10079077784102734
3.422,0.11811962367967213
3.424,0.09589007195555055
3.426,0.046912391842961705
3.428,0.03652883059546078
3.43,-0.035777162728782154
3.432,0.008519132936649826
3.434,-0.022390789326206667
3.436,-0.03633694223853087
3.438,-0.03636544539699052
3.44,0.01442310947828777
3.442,0.07142264569927931
3.444,-0.03268179066271167
3.446,0.009322552117854422
3.448,-0.04347675669024846
3.45,-0.022748303279391154
3.452,-0.049898467867649704
3.454,-0.030791261750257128
3.456,-0.05721416738853353
3.458,-0.0752275067780574
3.46,-0.04702717793666728
3.462,-0.06411967199690453
3.464,-0.09111728510336292
3.466,-0.09227234457347241
3.468,-0.08138357736595923
3.47,-0.10119989563288426
3.472,-0.1467272427914351
3.474,-0.216956488135285
3.476,-0.21083319607439727
3.478,-0.13880665973855905
3.48,-0.15687140079307682
3.482,-0.14590454350314877
3.484,-0.02163948802586942
3.486,0.08240109646245625
3.488,0.15818423888499722
3.49,0.275780631411444
3.492,0.426403228146663
3.494,0.4675999624075508
3.496,0.7293903170716522
3.498,0.8053306399315524
3.5,0.9836948155761422
3.5020000000000002,0.9383106189522777
3.504,0.8738455296552233
3.5060000000000002,0.6668184598941307
3.508,0.477099924658228
3.5100000000000002,0.22029702230545625
3.512,0.09659277570246164
3.5140000000000002,-0.14912510765474124
3.516,-0.16581681983973917
3.5180000000000002,-0.17841331071572758
3.52,-0.23779869613251275
3.5220000000000002,-0.12482593998515676
3.524,-0.19730548912331436
3.5260000000000002,-0.2253103005697091
3.528,-0.24922734664375462
3.5300000000000002,-0.24175983727374697
3.532,-0.24500424019922923
3.5340000000000003,-0.28742143391547037
3.536,-0.1666956840835682
3.5380000000000003,-0.0861273353940151
3.54,-0.06954479417340362
3.5420000000000003,-0.004625155872342961
3.544,-0.006995835927080536
3.5460000000000003,-0.10622599039480884
3.548,-0.00527339151627107
3.5500000000000003,-0.10214003882923868
3.552,-0.07042892618534152
3.5540000000000003,-0.0808544014008436
3.556,-0.0675561386975074
3.5580000000000003,-0.04689293475123529
3.56,-0.08580875085401338
3.5620000000000003,-0.07702085451438853
3.564,-0.0582667517157274
3.5660000000000003,0.00591018159588752
3.568,-0.005566577834950367
3.5700000000000003,-0.047187821836114835
3.572,-0.0508456372167936
3.5740000000000003,-0.0844903632083982
3.576,-0.09994885254944368
3.5780000000000003,-0.1649857302204818
3.58,-0.06474668028975769
3.5820000000000003,-0.03128155151678827
3.584,0.011067554484618793
3.586,0.024188843975504193
3.588,-0.017541248959243385
3.59,-0.049165681584417274
3.592,-0.07783916860928838
3.594,-0.11652314615200436
3.596,-0.16517919577741047
3.598,-0.10722117510492557
3.6,-0.05832925869017597
3.602,-0.01569206790463712
3.604,0.03409721268620983
3.606,-0.003800962693811513
3.608,-0.010528947522291447
3.61,-0.09722753823971876
3.612,-0.06907946597827094
3.614,-0.1345945814990139
3.616,-0.11826302288039103
3.618,-0.08476024589183365
3.62,-0.05780119120263444
3.622,0.0772083670551651
3.624,-0.01876270724252201
3.626,-0.05461075865670171
3.628,-0.03366157288389175
3.63,-0.059935997049844834
3.632,-0.12235524016700271
3.634,-0.09088238912824824
3.636,-0.061845038364167465
3.638,-0.04934418499909636
3.64,-0.0399170471418816
3.642,0.006789298619386274
3.644,-0.07235349078174962
3.646,-0.04722551094849575
3.648,-0.016766970386219333
3.65,-0.03337595763591951
3.652,-0.15515247727055925
3.654,0.0014944870688831519
3.656,-0.06718422221309027
3.658,-0.07519469108751428
3.66,-0.047922798749767626
3.662,-0.11379552427023176
3.664,-0.0006242383133897265
3.666,-0.01090673997905094
3.668,-0.015129105816018201
3.67,-0.009872580613147011
3.672,-0.04570340927128376
3.674,-0.07953306901082557
3.676,-0.06630254774546537
3.678,-0.15103541807294243
3.68,-0.0518270211846456
3.682,-0.04308241487089916
3.684,-0.0026843319828070387
3.686,0.04708692726233134
3.688,-0.005657390387317721
3.69,-0.04804980203206968
3.692,-0.06094718252061481
3.694,-0.0894903751131868
3.696,-0.15683510833193043
3.698,-0.06948096905184804
3.7,-0.08251548992328964
3.702,0.00999408717111129
3.704,0.06689894093489204
3.706,0.019520629886359
3.708,-0.032170485210411964
3.71,-0.061924239784551464
3.712,-0.11431974966390195
3.714,-0.06994101820684007
3.716,-0.1206568907320477
3.718,-0.07255814095490684
3.72,-0.03268121288221817
3.722,0.07785233355537942
3.724,0.013174321639567811
3.726,0.03282721435586286
3.728,-0.08062189897602601
3.73,-0.07363301194752647
3.732,-0.04666350192933927
3.734,-0.1181028191411268
3.736,-0.07957777894922338
3.738,-0.037508022305244554
3.74,0.014937364044040367
3.742,-0.024901191940501086
3.744,0.024745341252184347
3.746,-0.007021134395082218
3.748,-0.04693234810547711
3.75,-0.010273579030220113
3.7520000000000002,-0.015807185416232272
3.754,-0.06058167897596414
3.7560000000000002,-0.04492695410917497
3.758,-0.039759186192695604
3.7600000000000002,-0.022414416509216117
3.762,-0.04472689907891139
3.7640000000000002,0.008846464127391152
3.766,0.07540293270758985
3.7680000000000002,-0.01611851401791272
3.77,0.052393657788841794
3.7720000000000002,-0.008796290173636659
3.774,-0.04980600744537526
3.7760000000000002,-0.0481062552033527
3.778,-0.007289616977508816
3.7800000000000002,-0.008260648379018708
3.782,-0.0024471072041804195
3.7840000000000003,0.11690940755764187
3.786,0.10051593599215582
3.7880000000000003,0.13683559450323554
3.79,0.04249167161560388
3.7920000000000003,0.0658188143574793
3.794,0.00202847111037204
3.7960000000000003,0.0035276101299391138
3.798,0.06463663237646351
3.8000000000000003,0.1023291252587357
3.802,0.24866919483930494
3.8040000000000003,0.2119018351117876
3.806,0.23262564568518784
3.8080000000000003,0.20863166838183747
3.81,0.23908183625144228
3.8120000000000003,0.1490644614771497
3.814,0.2530478709942968
3.8160000000000003,0.2056788731208086
3.818,0.28529570516417074
3.8200000000000003,0.40343178106750777
3.822,0.4281498052700023
3.8240000000000003,0.4303164507113374
3.826,0.41514989682365727
3.8280000000000003,0.49691611271511266
3.83,0.46654392421168467
3.8320000000000003,0.41132548440611927
3.834,0.46724646486899785
3.8360000000000003,0.48430851344177445
3.838,0.5279837477441031
3.84,0.6075315998530141
3.842,0.5288448204883003
3.844,0.5935993832429379
3.846,0.5539645193989886
3.848,0.552097733687833
3.85,0.6047320699623002
3.852,0.4938379999431004
3.854,0.5389262114946286
3.856,0.4832805218943924
3.858,0.5108981768753749
3.86,0.43672725608729884
3.862,0.5145058566964621
3.864,0.4727324749343706
3.866,0.4400494142169546
3.868,0.479964566917513
3.87,0.4484741893543611
3.872,0.3963811670282396
3.874,0.3614883315249899
3.876,0.3103837024548234
3.878,0.2748707529780905
3.88,0.3113834514456885
3.882,0.3733147087766758
3.884,0.3482084281743932
3.886,0.37142709723294726
3.888,0.3149873147841046
3.89,0.32664150296618333
3.892,0.20976504816109276
3.894,0.19125387062861457
3.896,0.13883821737322932
3.898,0.21348643947253487
3.9,0.23379271421801898
3.902,0.22968270292623505
3.904,0.25406386383854257
3.906,0.2366105406760984
3.908,0.23696697062623867
3.91,0.1357116799857875
3.912,0.07794861369160722
3.914,0.09536019417611655
3.916,0.09845758945933009
3.918,0.07874534841203315
3.92,0.17358012487753396
3.922,0.17310747555504194
3.924,0.12889454577218035
3.926,0.15892241535233836
3.928,0.10144037004146979
3.93,0.039478906981784946
3.932,0.05101745451351702
3.934,-0.0023405011322079686
3.936,0.05833393196538935
3.938,0.09327951725941291
3.94,0.09006922531870395
3.942,0.05114433832589313
3.944,0.07000387710639895
3.946,0.10156347868672223
3.948,0.029778229015281557
3.95,0.03421089551350368
3.952,0.03232491596976736
3.954,0.06268005797946971
3.956,-0.0655007331011602
3.958,0.07566613371579148
3.96,0.003664200044344177
3.962,0.04546306856854383
3.964,-0.040511105773026794
3.966,0.01585966114828773
3.968,-0.017401909630658286
3.97,-0.05326119685683085
3.972,-0.03549235564303934
3.974,-0.14241253612944776
3.976,-0.10671662011705016
3.978,-0.12422242153965773
3.98,-0.048486840697679806
3.982,-0.026671429872965113
3.984,0.07784209476611911
3.986,0.07917605301349483
3.988,0.2704630883093025
3.99,0.3717203017676938
3.992,0.49367332647917644
3.994,0.5846076652146631
3.996,0.8240436394185335
3.998,0.9621063924078402
4.0,1.023131574047181
4.002,1.0596993300897894
4.0040000000000004,0.8674018336179924
4.006,0.7891395541967862
4.008,0.6059054149747648
4.01,0.27126571047889975
4.0120000000000005,0.18787280437353493
4.014,-0.03842500888135827
4.016,-0.0964936383415145
4.018,-0.05546246972496515
4.0200000000000005,-0.08497481301040345
4.022,-0.09719102997189416
4.024,-0.0827670316429206
4.026,-0.13636499432220384
4.0280000000000005,-0.13849447357205524
4.03,-0.16587112904000986
4.032,-0.24168205333995046
4.034,-0.05582416185754739
4.0360000000000005,-0.06542300850875395
4.038,-0.02310514835746982
4.04,0.05153099718564715
4.042,0.041662692082156734
4.0440000000000005,0.08230222506737248
4.046,0.08847200960135886
4.048,0.036767444218556024
4.05,0.04583595851065804
4.0520000000000005,0.021655951476709873
4.054,0.05538068595150955
4.056,0.004452778626513731
4.058,-0.03435757864122155
4.0600000000000005,0.074050105241166
4.062,0.0720239554190473
4.064,0.02448204718436911
4.066,0.089863109191148
4.0680000000000005,0.10370875543165882
4.07,0.10887500084380934
4.072,0.018425287401018228
4.074,0.00325877616794442
4.0760000000000005,-0.016052439643162126
4.078,-0.00088011150417798
4.08,0.069922554711533
4.082,0.01952727808384888
4.0840000000000005,0.0983346947285618
4.086,0.16593850627878498
4.088,0.11178683097391635
4.09,0.04705969138115754
4.0920000000000005,0.008286410322744756
4.094,0.02846066923591179
4.096,-0.06658066483031988
4.098,0.04169329163979497
4.1,0.0704061199531778
4.102,0.12582188459072052
4.104,0.12462370563103754
4.106,0.11085101926030677
4.108,0.10653061670944067
4.11,0.02331239796701411
4.112,0.024520987798318496
4.114,-0.04176346067755846
4.116,-0.00502510152949618
4.118,0.07820369353046418
4.12,0.09542124947122277
4.122,0.10927470368323547
4.124,0.13680679537310103
4.126,0.08768352620033175
4.128,0.043742217498279876
4.13,0.015999221926322683
4.132,0.05600535998093071
4.134,0.045244581302569434
4.136,0.03778933502377966
4.138,0.08077254791611253
4.14,0.06512796896039127
4.142,0.11538068360936987
4.144,0.04573933454624922
4.146,0.13244389282747906
4.148,0.08240669758926947
4.15,0.04948545759800782
4.152,0.07907199361341269
4.154,0.06271080868217402
4.156,-0.012968000077930877
4.158,0.09442820704614532
4.16,0.06316901601569852
4.162,0.06477696082090355
4.164,0.08807633827593413
4.166,0.1175877037762748
4.168,0.0999178232302789
4.17,0.1280693380748891
4.172,0.06845825986715069
4.174,0.03121832961830609
4.176,0.02167897184457817
4.178,-0.0009426730942934392
4.18,0.06810891130438637
4.182,0.1202221262868772
4.184,0.14146637818548446
4.186,0.09869883088934847
4.188,0.20295124243079732
4.19,0.06238154871022734
4.192,0.06505655815290227
4.194,0.008075463023613373
4.196,0.009740341109497775
4.198,0.023292352987636378
4.2,0.055427858197981864
4.202,0.18386839246014205
4.204,0.11593701555815034
4.206,0.14391229170033373
4.208,0.1584015828111174
4.21,0.06588880970502234
4.212,0.005704925255337931
4.214,0.0583350382307135
4.216,0.0712888443025709
4.218,0.012000132418514164
4.22,0.09638357481261979
4.222,0.16926891520190976
4.224,0.14226508269317462
4.226,0.09569298634258491
4.228,0.09715060422784973
4.23,0.06356578673071886
4.232,0.07049590243331241
4.234,0.06389695000049142
4.236,0.02223249718855716
4.238,0.1289719751764898
4.24,0.13303318482306048
4.242,0.1254290594994487
4.244,0.08863970075550184
4.246,0.13725483582770318
4.248,0.11471788096507976
4.25,0.0981538610528257
4.252,0.08713838351735614
4.2540000000000004,0.0801727910981542
4.256,0.05506284268942002
4.258,0.09259682768432013
4.26,0.1267319365565706
4.2620000000000005,0.12955817048227708
4.264,0.11723988395702808
4.266,0.11190991643036799
4.268,0.18376738127689157
4.2700000000000005,0.1575079915854425
4.272,0.16807296835045055
4.274,0.06876020811726874
4.276,0.0522935357520343
4.2780000000000005,0.10379669691015261
4.28,0.11824914516854612
4.282,0.18367759682554077
4.284,0.24300121223606264
4.2860000000000005,0.1804088433614402
4.288,0.2930119080356971
4.29,0.1850998052614178
4.292,0.16597645414923876
4.2940000000000005,0.17186837960137683
4.296,0.10466808309238892
4.298,0.1993933187871822
4.3,0.27392485667464483
4.3020000000000005,0.2465395123379263
4.304,0.38345847584981524
4.306,0.37841336107598106
4.308,0.3665864232385473
4.3100000000000005,0.29229990319793275
4.312,0.333061176477639
4.314,0.3436737776388103
4.316,0.33206986364785146
4.3180000000000005,0.4913353230582781
4.32,0.4206885868078852
4.322,0.564148657565354
4.324,0.5866092773666851
4.3260000000000005,0.6008849154707486
4.328,0.6039424944383294
4.33,0.501945312192345
4.332,0.6177977728825915
4.3340000000000005,0.5406884398046895
4.336,0.6555357673966298
4.338,0.6669308929673017
4.34,0.6823044694489993
4.3420000000000005,0.6716365881078104
4.344,0.6895602410574149
4.346,0.6833685540649043
4.348,0.7456634882338734
4.3500000000000005,0.6442259426721543
4.352,0.6352008266521842
4.354,0.6687181571282871
4.356,0.6132505988749386
4.358,0.5897281017643614
4.36,0.5954456826983386
4.362,0.5796680600255044
4.364,0.5875241348160685
4.366,0.6064293580081498
4.368,0.6068130774411662
4.37,0.5458679180104845
4.372,0.5309973956605458
4.374,0.45652324136105393
4.376,0.4409808320897751
4.378,0.3615878359383779
4.38,0.44538778516771216
4.382,0.4700332451922236
4.384,0.46182681942172177
4.386,0.48672421713345554
4.388,0.46023981915675083
4.39,0.423651059665392
4.392,0.35320256874681366
4.394,0.26419574347943864
4.396,0.26934291381897546
4.398,0.3022433344116048
4.4,0.35229028006312035
4.402,0.33362982457517454
4.404,0.3942040447283438
4.406,0.37779310139523975
4.408,0.30764402882390274
4.41,0.24147380249184222
4.412,0.22667076945133224
4.414,0.19431696791953174
4.416,0.19970191163713902
4.418,0.21089345577764682
4.42,0.2152601320873831
4.422,0.3131528822566075
4.424,0.2833387715028353
4.426,0.24551132445308366
4.428,0.15337353207609555
4.43,0.17361070102373075
4.432,0.13603804528283686
4.434,0.13960802341657338
4.436,0.16389119241076963
4.438,0.1941756534625727
4.44,0.18106034632208787
4.442,0.19717403454727656
4.444,0.16827918558795035
4.446,0.16003351421386902
4.448,0.1647031064471216
4.45,0.14035239591772758
4.452,0.0884307694990966
4.454,0.18982476411149105
4.456,0.11961889591501715
4.458,0.035688876521113036
4.46,0.13917035320124824
4.462,0.07184848273560077
4.464,0.13284579643198385
4.466,0.11608224436769239
4.468,0.04316350075814464
4.47,0.08246423751545859
4.472,0.036235404114365426
4.474,-0.03316171420290218
4.476,-0.005211544453281015
4.478,-0.05156106501966022
4.48,0.018916530944389682
4.482,0.08375759517142957
4.484,0.16634016671879504
4.486,0.1560158924175646
4.488,0.3838361637500984
4.49,0.4877661847103616
4.492,0.5468419908483239
4.494,0.7181219348294136
4.496,0.9062199642831015
4.498,0.966936124155631
4.5,1.15098054905597
4.502,1.110923392252677
4.5040000000000004,1.0359718709604229
4.506,0.82287199606471
4.508,0.6643181368103785
4.51,0.3778276946115867
4.5120000000000005,0.26908657948815307
4.514,0.05912770551857638
4.516,0.0021261888538187963
4.518,-0.02389016431632239
4.5200000000000005,0.021849703502823586
4.522,-0.007046614600542216
4.524,-0.022342519299924785
4.526,-0.04151004105022723
4.5280000000000005,-0.10152887876111386
4.53,-0.08580572703984982
4.532,-0.06375584474090668
4.534,-0.05932012227713866
4.5360000000000005,0.0009319981012702004
4.538,0.036372022680838646
4.54,0.15407504126449642
4.542,0.10552949502009104
4.5440000000000005,0.1603380967446122
4.546,0.13006823829919
4.548,0.13529810300236564
4.55,0.08442935382029455
4.5520000000000005,0.10835135606447231
4.554,0.09525167934576785
4.556,0.06547132554103104
4.558,0.10084734355293723
4.5600000000000005,0.09973133953785933
4.562,0.10048460519818528
4.564,0.1616021154569577
4.566,0.14627448016454614
4.5680000000000005,0.1712515915129623
4.57,0.12266530398696616
4.572,0.11069314184728185
4.574,0.060551688377582624
4.5760000000000005,0.07868953207069324
4.578,0.042787679217861536
4.58,0.04699508930887159
4.582,0.1614334880717746
4.5840000000000005,0.15257989052672785
4.586,0.19017679939106075
4.588,0.1434448132988893
4.59,0.14858753156522997
4.5920000000000005,0.07156890826631859
4.594,0.00947785356316716
4.596,0.05652416656376518
4.598,0.06672695519540535
4.6000000000000005,0.09712898770639784
4.602,0.14603409843835413
4.604,0.1882375794865185
4.606,0.16216783383388902
4.6080000000000005,0.18879728217739017
4.61,0.0452910487235758
4.612,0.06634569298980818
4.614,0.03205101099049879
4.616,0.01894870844332211
4.618,0.10502834483752543
4.62,0.12868123537701565
4.622,0.18127791046518124
4.624,0.16154545124606723
4.626,0.15069058085903214
4.628,0.13819939325514308
4.63,0.016855924764719685
4.632,0.08370713081141581
4.634,0.06704659708278132
4.636,0.08330190217007047
4.638,0.05791377155216358
4.64,0.17315341968018835
4.642,0.0951723748803798
4.644,0.13774860210269674
4.646,0.10810533731306193
4.648,0.09192875263071913
4.65,0.10260434888865394
4.652,0.10979894527090309
4.654,0.09368847559990452
4.656,0.06381974980165568
4.658,0.08494512161498316
4.66,0.03523346583535017
4.662,0.147475669310977
4.664,0.09973531345129838
4.666,0.11490060108515078
4.668,0.1646571367253006
4.67,0.15005860061048315
4.672,0.04321532484259251
4.674,0.08159177263605528
4.676,0.024930344733940825
4.678,0.06651623901490533
4.68,0.08788938071084407
4.682,0.06566404113440923
4.684,0.15193214778454037
4.686,0.1452604429113585
4.688,0.16655696799232458
4.69,0.13657887642362732
4.692,0.04394754642770216
4.694,0.0388576128450374
4.696,-0.007949582337296885
4.698,0.04870940018406959
4.7,0.08630378071145338
4.702,0.13281657649410877
4.704,0.14184227178527653
4.706,0.17660921087585787
4.708,0.1260996238033201
4.71,0.10379166047680959
4.712,0.00047794705390413403
4.714,0.008861221217435525
4.716,0.03856350552599123
4.718,0.09327541077088114
4.72,0.10225928731423388
4.722,0.18211038049702702
4.724,0.10852216179851062
4.726,0.10915439707149395
4.728,0.11598331655931121
4.73,0.0600635666461464
4.732,0.03484631070753737
4.734,0.00469837155536805
4.736,0.08589132041687106
4.738,0.11169861453803409
4.74,0.09024814112172172
4.742,0.10346224823788802
4.744,0.0673355208753472
4.746,0.15509291707631553
4.748,0.07596604335216312
4.75,0.10052185266165978
4.752,0.03204116203461687
4.7540000000000004,0.12901216464609225
4.756,0.05420397178977439
4.758,0.043793737311804956
4.76,0.06587863618617712
4.7620000000000005,0.09888380008347447
4.764,0.13417955497823306
4.766,0.1415622653467739
4.768,0.12536125981628066
4.7700000000000005,0.12530582687128022
4.772,0.1348535464386078
4.774,0.07159096135879722
4.776,0.034481104103782904
4.7780000000000005,0.029294984505945473
4.78,0.09094475154899055
4.782,0.18486056972649684
4.784,0.13946522143996698
4.7860000000000005,0.22525015575039234
4.788,0.19671460503414614
4.79,0.1813302812589983
4.792,0.1451147273993857
4.7940000000000005,0.08486712325956115
4.796,0.1064239428299762
4.798,0.1500305937284277
4.8,0.23185030664363337
4.8020000000000005,0.2905776417795103
4.804,0.2998463755947207
4.806,0.3417542379102891
4.808,0.3060750667458469
4.8100000000000005,0.309159043096778
4.812,0.27388229786615464
4.814,0.3062065801902912
4.816,0.2615517545402335
4.8180000000000005,0.39980350475409787
4.82,0.41105340412525154
4.822,0.5437191859840709
4.824,0.522037894175804
4.8260000000000005,0.5489283191720236
4.828,0.47717461195987404
4.83,0.5517843119178648
4.832,0.48719789871636004
4.8340000000000005,0.5592055255339201
4.836,0.5214265874930705
4.838,0.6604622887660774
4.84,0.5925499749704307
4.8420000000000005,0.6456453559451103
4.844,0.7020381769427685
4.846,0.625191803740843
4.848,0.6149190215984432
4.8500000000000005,0.5862953867969132
4.852,0.6089565382905671
4.854,0.5503417248035332
4.856,0.5942568054593714
4.8580000000000005,0.5024044469761104
4.86,0.5616268001206153
4.862,0.5375659620811355
4.864,0.5070300872886011
4.866,0.5122559395907814
4.868,0.6016631164869095
4.87,0.43696694144516723
4.872,0.478348950208148
4.874,0.39226631744331325
4.876,0.34168616527547147
4.878,0.3351745532492102
4.88,0.3698090573353363
4.882,0.4017032089049319
4.884,0.35627797805996747
4.886,0.4614046105357109
4.888,0.3787932606294039
4.89,0.3410812722014086
4.892,0.21656379520574892
4.894,0.20480026241281854
4.896,0.21053959488135968
4.898,0.21661524566988433
4.9,0.24268296642138942
4.902,0.30498828765913555
4.904,0.29088882105940045
4.906,0.3332359811619974
4.908,0.18130897680767674
4.91,0.231122513291526
4.912,0.04856729884327314
4.914,0.11461420060019549
4.916,0.1517910654261544
4.918,0.10303814732342932
4.92,0.1668217248287378
4.922,0.19823578433614478
4.924,0.17010343615746554
4.926,0.1576239596395623
4.928,0.11123727096174384
4.93,0.07973361514186465
4.932,0.029554314783477784
4.934,0.03339716605373503
4.936,0.09800376593737573
4.938,0.05734766028281042
4.94,0.03070299251356881
4.942,0.1595000525951667
4.944,0.051656855632100984
4.946,0.055515206424195315
4.948,0.0694690460997217
4.95,0.056231333733478356
4.952,0.041857678966115475
4.954,0.03445280270487375
4.956,-0.028269261041183987
4.958,0.019942670398794184
4.96,0.005831215811842538
4.962,0.025426375621188532
4.964,0.019499852021365803
4.966,-0.05074098925916354
4.968,0.015697498124009696
4.97,-0.0772766507630229
4.972,-0.06292644128192436
4.974,-0.12088949924807964
4.976,-0.11512122412341824
4.978,-0.15368220469170424
4.98,-0.05914141327704918
4.982,-0.03011430942540201
4.984,-0.00933401262610064
4.986,0.07406115539762329
4.988,0.26475644696963574
4.99,0.3565795584473972
4.992,0.45110630954219433
4.994,0.5630217772350907
4.996,0.8177173646132445
4.998,0.9522506433425014
5.0,0.9761884446185444
5.002,0.9843905144968706
5.0040000000000004,0.9049964274813739
5.006,0.7177891537062572
5.008,0.5357995845314188
5.01,0.2925271111452118
5.0120000000000005,0.14551067888143707
5.014,-0.07950120838899229
5.016,-0.16891978005338226
5.018,-0.11349176451067255
5.0200000000000005,-0.054715581778302366
5.022,-0.14520545081439404
5.024,-0.15921399845637943
5.026,-0.1705898326852447
5.0280000000000005,-0.20662836685085592
5.03,-0.2550548378789544
5.032,-0.14791341700939115
5.034,-0.23781758365622546
5.0360000000000005,-0.13075248643909823
5.038,-0.0713311611649997
5.04,-0.0007706715304355554
5.042,0.06628934553618787
5.0440000000000005,0.0225379455179737
5.046,-0.020588644329201402
5.048,-0.012686936382287989
5.05,-0.02643008299744767
5.0520000000000005,-0.019123888342087347
5.054,-0.03735422937274943
5.056,-0.04709696151483475
5.058,-0.053274017612879566
5.0600000000000005,-0.017379132454452932
5.062,-0.030770633741706178
5.064,-0.03412724217875765
5.066,0.02644994440132343
5.0680000000000005,0.04845819794424554
5.07,-1.035299700906378e-05
5.072,-0.016995534553776875
5.074,-0.0725096599497458
5.0760000000000005,-0.09476241471328076
5.078,-0.08206023857744893
5.08,-0.03288634322537856
5.082,-0.05296635640036852
5.0840000000000005,0.03367426052615369
5.086,0.057106840218060444
5.088,0.026402851292958645
5.09,-0.022090554453790753
5.0920000000000005,-0.03718716090909596
5.094,-0.11463251555700463
5.096,-0.06918303145082264
5.098,-0.0966797007270074
5.1000000000000005,-0.07195482281670576
5.102,0.025740513258649636
5.104,0.05928518577606852
5.106,0.027516076346354376
5.1080000000000005,-0.005786866646963233
5.11,-0.04884575986895573
5.112,-0.08473861323311405
5.114,-0.16028546405886324
5.1160000000000005,-0.06613235656935203
5.118,-0.06465017865165261
5.12,0.018421872363535246
5.122,-0.0006357503965631617
5.124,-0.02839925429407371
5.126,0.04499925474804275
5.128,-0.06686895956050705
5.13,-0.10981355655093841
5.132,-0.02526550407192925
5.134,-0.12175925713147616
5.136,-0.04953453273332025
5.138,-0.03682984403894205
5.14,-0.025540939135816905
5.142,-0.03561184231570279
5.144,-0.01322360013559478
5.146,-0.02588469019521245
5.148,-0.0652280153978829
5.15,-0.020997526114904685
5.152,-0.09157396819921224
5.154,-0.08866849683024186
5.156,-0.02272386944297461
5.158,-0.09505791467654587
5.16,-0.07310561610079552
5.162,-0.030393582073296017
5.164,-0.034364046029245914
5.166,-0.02150201952322841
5.168,-0.0038978442030546782
5.17,-0.048089352231086485
5.172,-0.07746675277538663
5.174,-0.09959722253620744
5.176,-0.11482398331774424
5.178,-0.11022490984580167
5.18,-0.05413630633031736
5.182,-0.05602064699098265
5.184,-0.009116451888801627
5.186,0.02137253195286421
5.188,-0.04878766518943785
5.19,-0.023406682015809095
5.192,-0.09938575462717815
5.194,-0.1418394557237792
5.196,-0.11153888853566737
5.198,-0.14065688425046796
5.2,-0.06701570888229691
5.202,-0.0023684310327775505
5.204,0.02920094664126658
5.206,-0.023890333178860138
5.208,0.016861973775729976
5.21,-0.10079074764842409
5.212,-0.13055164044355214
5.214,-0.16210600961849028
5.216,-0.13808627425156678
5.218,-0.05959622693245314
5.22,0.008113496751243982
5.222,-0.06855508393463867
5.224,0.0199808711597217
5.226,-0.012790954468444676
5.228,-0.10864771099006401
5.23,-0.10660886423135842
5.232,-0.1190006529693634
5.234,-0.09311381764236273
5.236,-0.08230779626985128
5.238,-0.06777825215076386
5.24,-0.055299548965443104
5.242,-0.07326056749966371
5.244,-0.08834742412757637
5.246,-0.02720057725215267
5.248,-0.06750295970157
5.25,-0.057018447522957184
5.252,-0.07111881043539628
5.2540000000000004,-0.07328307092903755
5.256,-0.10900076728597893
5.258,-0.08054214731800112
5.26,-0.10510107157749335
5.2620000000000005,-0.08774035247139175
5.264,-0.03875587122219752
5.266,-0.0028455129059932263
5.268,-0.007264828436643897
5.2700000000000005,-0.032612481992484024
5.272,-0.048150351493567625
5.274,-0.04633825633852868
5.276,-0.15070792485313964
5.2780000000000005,-0.10309987653906104
5.28,-0.04274971055605238
5.282,-0.045684217784872826
5.284,0.03628295536219313
5.2860000000000005,0.04741740036010964
5.288,0.09658576776293543
5.29,-0.03188199033259417
5.292,0.015194633756965233
5.2940000000000005,-0.07630519800465607
5.296,0.010896712310150505
5.298,-0.05977237415066394
5.3,0.07714044129888312
5.3020000000000005,0.11579643957929267
5.304,0.19462109241736444
5.306,0.1515677326458521
5.308,0.17070390536378233
5.3100000000000005,0.13561536620128856
5.312,0.08595819605976499
5.314,0.09261785191683772
5.316,0.2166261802731974
5.3180000000000005,0.2087034993391057
5.32,0.2741148245152135
5.322,0.38223749579534044
5.324,0.38385156986762303
5.3260000000000005,0.35701352034688383
5.328,0.3769343658047009
5.33,0.38413824728945845
5.332,0.35418992412513967
5.3340000000000005,0.4019337537734506
5.336,0.3872036860519141
5.338,0.4408141677983769
5.34,0.49711421727314403
5.3420000000000005,0.48661733512521776
5.344,0.5160944793915327
5.346,0.45025641033070407
5.348,0.4566332700730118
5.3500000000000005,0.46650267789667144
5.352,0.49091614433985775
5.354,0.41197246436969326
5.356,0.3950634580273123
5.3580000000000005,0.42359783513882027
5.36,0.3622621748572131
5.362,0.34002973909691797
5.364,0.4036630299158393
5.3660000000000005,0.4234912311323303
5.368,0.349391579928211
5.37,0.33103370748565714
5.372,0.2951781771051689
5.3740000000000006,0.28384125606570115
5.376,0.22972795739925161
5.378,0.14470025484116272
5.38,0.25178743467643566
5.382,0.19933688278599276
5.384,0.2979536732373028
5.386,0.25243155232354403
5.388,0.22571949297226762
5.39,0.2572734904196078
5.392,0.056958340859280504
5.394,0.059473303211642035
5.396,0.09627663805592504
5.398,0.062220511764978954
5.4,0.10905753211430683
5.402,0.15196419470447822
5.404,0.14358001862370728
5.406,0.1610411822654848
5.408,0.0931408864593614
5.41,0.0519636657142179
5.412,-0.02004128969700961
5.414,-0.06910445219176496
5.416,-0.029524942405453457
5.418,-0.025013549691379828
5.42,0.08356021746556809
5.422,0.04041297022708901
5.424,0.0328688363741786
5.426,-0.010416099051757922
5.428,-0.013256027918966923
5.43,-0.04864940944827581
5.432,-0.06449048897490889
5.434,-0.10787084160406094
5.436,-0.07055158279717384
5.438,-0.09321164840067321
5.44,-0.01304523886344277
5.442,-0.08950751495270239
5.444,-0.043819518294022836
5.446,-0.05479938904959983
5.448,-0.05757161259082762
5.45,-0.08440918745481542
5.452,-0.13789157698217203
5.454,-0.06171091935845779
5.456,-0.10647474678875635
5.458,-0.11146767639400218
5.46,-0.13887157237234646
5.462,-0.11952113542766485
5.464,-0.15413167394443472
5.466,-0.1046901201588809
5.468,-0.140794467291139
5.47,-0.18171187451311263
5.472,-0.20187448503747146
5.474,-0.23694709182185125
5.476,-0.22213166763898878
5.478,-0.29366152220407155
5.48,-0.19568630270251347
5.482,-0.16805089281992475
5.484,-0.09171357201980998
5.486,-0.053706562261030905
5.488,0.1501603414185091
5.49,0.25470898305492395
5.492,0.3208797908740727
5.494,0.4934252526198458
5.496,0.6071159588133114
5.498,0.8069769691829205
5.5,0.8586323405667288
5.502,0.925513755687194
5.5040000000000004,0.8146251747286524
5.506,0.5745136412077501
5.508,0.40930072662435696
5.51,0.21377620393440389
5.5120000000000005,0.07177562374883843
5.514,-0.27764430202550877
5.516,-0.19529406846347147
5.518,-0.255727798084685
5.5200000000000005,-0.2379736856263916
5.522,-0.19421567866671713
5.524,-0.22744610642899013
5.526,-0.28201502030371817
5.5280000000000005,-0.36094796579641425
5.53,-0.32461391096168773
5.532,-0.2599128061901967
5.534,-0.3340771395867443
5.5360000000000005,-0.2310992064830697
5.538,-0.11370498343637477
5.54,-0.1460621744175531
5.542,-0.06679526435588376
5.5440000000000005,-0.09365103010692381
5.546,-0.12105525507407153
5.548,-0.09696424503765397
5.55,-0.10377143917054994
5.5520000000000005,-0.15287761348042678
5.554,-0.11611828533429644
5.556,-0.14508174879992966
5.558,-0.12881622033946694
5.5600000000000005,-0.13789449573323428
5.562,-0.13157243370121058
5.564,-0.08833660148479731
5.566,-0.08001013236416529
5.5680000000000005,-0.039710773208756045
5.57,-0.10606429779231773
5.572,-0.10930820238068399
5.574,-0.15194210168575964
5.5760000000000005,-0.16820137971707014
5.578,-0.22325467027644158
5.58,-0.10054334737808729
5.582,-0.10141453551962042
5.5840000000000005,-0.06617162486945746
5.586,-0.054492788384517
5.588,-0.004935595170051099
5.59,-0.14656212155274279
5.5920000000000005,-0.11596465946896475
5.594,-0.19525489684011693
5.596,-0.17963115956858366
5.598,-0.19356627023608275
5.6000000000000005,-0.11287955804282378
5.602,0.014789182202034068
5.604,-0.08261476312829442
5.606,-0.06232907582945338
5.6080000000000005,-0.07061752273558417
5.61,-0.17861447192309393
5.612,-0.12830356118518804
5.614,-0.20509035278690158
5.6160000000000005,-0.17441957751602488
5.618,-0.10493540023045894
5.62,-0.05454730480275473
5.622,-0.10365364259821419
5.6240000000000006,-0.02236471720604922
5.626,-0.0863562624713282
5.628,-0.09378485596240506
5.63,-0.15120125116527106
5.632,-0.1527135458709629
5.634,-0.14798331868046397
5.636,-0.1386400841185571
5.638,-0.08943006918564153
5.64,-0.12140506283085996
5.642,-0.09785889835379866
5.644,-0.07831462459802553
5.646,-0.060938727937467664
5.648,-0.12811095846810797
5.65,-0.09129544541509714
5.652,-0.12047933911488083
5.654,-0.12043562180379781
5.656,-0.14837347782739158
5.658,-0.12354773522419214
5.66,-0.11703928475707552
5.662,-0.0831118493685455
5.664,-0.10800949728701659
5.666,-0.09198994018610804
5.668,-0.03602163375946672
5.67,-0.0995355343467589
5.672,-0.10163893994561442
5.674,-0.17175874834806573
5.676,-0.10700829671998718
5.678,-0.17114147327581228
5.68,-0.12091542576374373
5.682,-0.09268696164276657
5.684,-0.09473380408403155
5.686,-0.016914295587300482
5.688,-0.055818028453957835
5.69,-0.09334825336733255
5.692,-0.10962640448921586
5.694,-0.1804324216771921
5.696,-0.18671314526569402
5.698,-0.18544378039581053
5.7,-0.06024008673624546
5.702,-0.04370614986914444
5.704,-0.005268377916508783
5.706,-0.04604946944317485
5.708,-0.07880702430594519
5.71,-0.11838035491351336
5.712,-0.14282653184841437
5.714,-0.19496477732865783
5.716,-0.16067524511651687
5.718,-0.1079352937790379
5.72,-0.06822282631915386
5.722,-0.04194716423426516
5.724,-0.03961295540801627
5.726,-0.0466631200677904
5.728,-0.08687788224040169
5.73,-0.17846236127994936
5.732,-0.08882276055493535
5.734,-0.1374504269380419
5.736,-0.1058647150466099
5.738,-0.08468441313090039
5.74,-0.06774708700366021
5.742,-0.09109937821798059
5.744,-0.07859699894075475
5.746,-0.08363398714858415
5.748,-0.03710930054395455
5.75,-0.1098909159424467
5.752,-0.06471635649672647
5.7540000000000004,-0.16653671770405754
5.756,-0.08974573529017131
5.758,-0.061925419160869084
5.76,-0.1121487378163362
5.7620000000000005,-0.06518530519022354
5.764,-0.06823787362184923
5.766,-0.037869345971635396
5.768,0.03926061996053712
5.7700000000000005,-0.0846916042082792
5.772,-0.012432042296725981
5.774,-0.11626919461497735
5.776,-0.06802145980901439
5.7780000000000005,-0.13200277471486688
5.78,-0.06340832340042725
5.782,-0.031477506573842864
5.784,0.03312740131753369
5.7860000000000005,0.10032187973920617
5.788,0.026691118033344098
5.79,-0.006872115417314403
5.792,-0.028553559119018343
5.7940000000000005,-0.022374977453973755
5.796,-0.08563731414077393
5.798,0.01625486068718677
5.8,0.08645616803548378
5.8020000000000005,0.1295044859331208
5.804,0.18302734950774022
5.806,0.19148879410529196
5.808,0.16320460099014392
5.8100000000000005,0.15595817680218213
5.812,0.10630865259964624
5.814,0.10878828610296329
5.816,0.2485246250690511
5.8180000000000005,0.19484149186041583
5.82,0.29728022511733815
5.822,0.3900501445567062
5.824,0.37950057298435336
5.8260000000000005,0.4012011714387852
5.828,0.44121407598366574
5.83,0.3635434192126654
5.832,0.357593495028967
5.8340000000000005,0.41326205326443544
5.836,0.4514120562161368
5.838,0.4952062993440618
5.84,0.5122273950176374
5.8420000000000005,0.5211595584362022
5.844,0.5174506620553516
5.846,0.4936556860278153
5.848,0.5240730327785798
5.8500000000000005,0.4631975568650535
5.852,0.4726878374481182
5.854,0.46595748029101014
5.856,0.4220845095821808
5.8580000000000005,0.39709207355767806
5.86,0.45045630370089385
5.862,0.39639471088742645
5.864,0.42136081926705854
5.8660000000000005,0.4612011988155487
5.868,0.4085605556496047
5.87,0.38274078651713095
5.872,0.3153992271538626
5.8740000000000006,0.32109310425836624
5.876,0.21976648618047925
5.878,0.24572913533746144
5.88,0.23119213353856508
5.882000000000001,0.2878416043817339
5.884,0.2873161910597986
5.886,0.3402416493364241
5.888,0.31456241715146616
5.89,0.219312300159342
5.892,0.17447048135828852
5.894,0.15817504471976368
5.896,0.06391597066638628
5.898,0.0918483713619586
5.9,0.15685417667091
5.902,0.16235978591070083
5.904,0.25418619448835117
5.906,0.2219276261240648
5.908,0.10900186955062197
5.91,0.08125497608284139
5.912,0.061885543395288053
5.914,0.023083071989849584
5.916,0.003504494801471268
5.918,0.08169132531835399
5.92,0.05755087219568536
5.922,0.0934482228662768
5.924,0.13637827286161724
5.926,0.08125672065576837
5.928,0.02252540921575315
5.93,0.0020535075502228373
5.932,0.030743105541700823
5.934,-0.11321410544565785
5.936,0.05875550928121274
5.938,-0.060597133163697615
5.94,0.060553517368897525
5.942,0.01911277382096991
5.944,0.012581181717172128
5.946,0.05873148618865076
5.948,-0.026610379757461895
5.95,-0.0438824514105939
5.952,-0.04653137404931561
5.954,-0.01626618487625318
5.956,-0.037997515382523536
5.958,-0.07487348953042844
5.96,-0.033284072816269016
5.962,-0.028428392073829432
5.964,-0.07358720616015971
5.966,-0.049761005973481376
5.968,-0.08096956907435024
5.97,-0.07600469128476117
5.972,-0.12242617178842982
5.974,-0.2143514738834017
5.976,-0.12464451655139415
5.978,-0.20735589921697517
5.98,-0.1292875861863887
5.982,-0.012404523457151165
5.984,-0.06418000432098586
5.986,0.05347946094849125
5.988,0.1996006300386795
5.99,0.2844515349264115
5.992,0.4633886961690315
5.994,0.5869770807576549
5.996,0.7345059179225716
5.998,0.852567736390656
6.0,0.9540796518990902
6.002,0.9762813004008292
6.0040000000000004,0.8570908395298265
6.006,0.7912104230892922
6.008,0.4698603488826805
6.01,0.28000898439920097
6.0120000000000005,0.08241549843446477
6.014,-0.09973700353541089
6.016,-0.12437238030715503
6.018,-0.15334690434095774
6.0200000000000005,-0.0909217786793049
6.022,-0.15893087428376634
6.024,-0.16435507075100386
6.026,-0.17692827420307897
6.0280000000000005,-0.22162755115279592
6.03,-0.2670679074287701
6.032,-0.21598301814775536
6.034,-0.17867281270870208
6.0360000000000005,-0.12790212835258158
6.038,-0.0519884411130147
6.04,-0.028819450435428755
6.042,0.035713668565426446
6.0440000000000005,0.03564767886419523
6.046,-0.08145795071148337
6.048,0.005196337607980684
6.05,-0.01592862837672244
6.0520000000000005,0.01428382298667577
6.054,-0.06560627635401947
6.056,0.0009003522392178609
6.058,-0.06504306979072771
6.0600000000000005,-0.02365028431164114
6.062,-0.00010442577760982549
6.064,-0.009678959371931653
6.066,0.03357652835298939
6.0680000000000005,0.011889072736259464
6.07,0.03691775499583384
6.072,0.027089560430057683
6.074,-0.06799773952295923
6.0760000000000005,-0.08051762482761574
6.078,-0.022252798632393524
6.08,-0.06256407168558034
6.082,0.0029298399227274093
6.0840000000000005,0.06740215097060809
6.086,0.03766866013458182
6.088,0.059551555740558884
6.09,-0.003594317414841227
6.0920000000000005,-0.0050630996130785685
6.094,-0.050415274068326174
6.096,-0.11273571656598422
6.098,-0.024929040403586074
6.1000000000000005,0.0211344954387979
6.102,0.02495034302588607
6.104,0.08636200767094994
6.106,0.061307519940984864
6.1080000000000005,0.01931235055469618
6.11,-0.014164159002307056
6.112,-0.04964512231362238
6.114,-0.08039297390237052
6.1160000000000005,-0.036586175461499705
6.118,-0.016335974605519644
6.12,-0.028553898278291814
6.122,0.08355447704882256
6.1240000000000006,0.07608434270571401
6.126,0.06484266877070614
6.128,0.003445781405249337
6.13,-0.024890143430774572
6.132000000000001,-0.02937792967547801
6.134,-0.002376236600502981
6.136,-0.06937204134029526
6.138,0.03373672437211843
6.140000000000001,0.03927192676008626
6.142,0.025079993003022147
6.144,0.029406153218785532
6.146,0.051351037041823824
6.148,0.028040992342707897
6.15,-0.022823908158942346
6.152,0.010494775313159966
6.154,0.0036450873321564447
6.156,-0.012853922885024334
6.158,-0.03374669682582228
6.16,0.024269871382953785
6.162,-0.00997606010799465
6.164,0.03158948681777035
6.166,0.07499184313745169
6.168,0.04069903001878232
6.17,0.07454275947015343
6.172,-0.006208208539304462
6.174,0.028106397441153334
6.176,-0.06684990208545516
6.178,-0.03502006358213835
6.18,0.020569445499730606
6.182,-0.018274537602584774
6.184,0.07883645017063937
6.186,0.1336355291318868
6.188,0.07302541616514371
6.19,0.014313566225052973
6.192,0.016902488933294844
6.194,-0.08160388872080769
6.196,-0.03637611365838004
6.198,-0.06944561628697979
6.2,0.07283664906985524
6.202,0.08403769160558472
6.204,0.07662151705925602
6.206,0.1359775502424571
6.208,0.06135573821669396
6.21,0.012897449074342336
6.212,-0.0181483232570137
6.214,-0.08870087709302003
6.216,0.009552520471171347
6.218,-0.005905100400224265
6.22,0.07591632146912514
6.222,0.10001834762979056
6.224,0.06174842513841056
6.226,0.05147993902814604
6.228,0.02034395999403453
6.23,0.0297712588900783
6.232,-0.053168856058408605
6.234,0.046688775303448234
6.236,-0.013857804917613677
6.238,0.036132330060523465
6.24,0.05473143598784706
6.242,0.04055447786877501
6.244,0.08330440998731464
6.246,0.10095926064797306
6.248,0.010660681564397277
6.25,0.054559797979026305
6.252,0.04551144364395496
6.2540000000000004,0.03998156521372258
6.256,0.025439898516386554
6.258,0.01266495270483143
6.26,0.028956451145663767
6.2620000000000005,0.06679873995263402
6.264,0.09869002279735009
6.266,0.06721765701761037
6.268,0.10983432204996219
6.2700000000000005,0.1002858312905332
6.272,0.07111137097508931
6.274,0.03530416157651975
6.276,0.0521648355432719
6.2780000000000005,0.03655301662881247
6.28,0.030948330132181852
6.282,0.11855590582192793
6.284,0.15224934483291203
6.2860000000000005,0.21987379251550626
6.288,0.1278012000683061
6.29,0.16386049209270362
6.292,0.12201621835989239
6.2940000000000005,0.06563810839436658
6.296,0.09442965382381156
6.298,0.1460289922372891
6.3,0.11199824972568018
6.3020000000000005,0.3331751682751605
6.304,0.24741596409633915
6.306,0.3345255671602846
6.308,0.32146028289955514
6.3100000000000005,0.23902116592487926
6.312,0.25741737747433063
6.314,0.23062713249905728
6.316,0.3399362311430615
6.3180000000000005,0.3820923314671476
6.32,0.4300273339768872
6.322,0.515858077978331
6.324,0.5089092411256464
6.3260000000000005,0.5120500410824889
6.328,0.5370257799457543
6.33,0.440983987717971
6.332,0.5238942135151882
6.3340000000000005,0.576417476919437
6.336,0.5361001991675187
6.338,0.6156340171521314
6.34,0.6294719767085445
6.3420000000000005,0.6431596063249811
6.344,0.6492219685105499
6.346,0.635898182538103
6.348,0.5968113448927513
6.3500000000000005,0.6434572510974274
6.352,0.6132378548886296
6.354,0.5365723510379596
6.356,0.5557417410525839
6.3580000000000005,0.5572868533227037
6.36,0.5077109564997537
6.362,0.5772061393751015
6.364,0.5258491712964476
6.3660000000000005,0.5391557963698183
6.368,0.5252867340362793
6.37,0.5450660662003022
6.372,0.4480696360338165
6.3740000000000006,0.40625445225271817
6.376,0.41236890361453366
6.378,0.29202702840740186
6.38,0.38411280640000867
6.382000000000001,0.3915763424385911
6.384,0.45133628099688783
6.386,0.4216566442307439
6.388,0.43268591000005546
6.390000000000001,0.2823015122539186
6.392,0.25922547494974046
6.394,0.2649574242427671
6.396,0.24947550266052446
6.398000000000001,0.22920563082822593
6.4,0.2764367865890375
6.402,0.2711503819430202
6.404,0.3719083135810591
6.406,0.2734716440913805
6.408,0.32174019954523325
6.41,0.16630950376543327
6.412,0.15150944008231954
6.414,0.08381009076798845
6.416,0.1596004129800565
6.418,0.1718040419783494
6.42,0.20748198422546277
6.422,0.19446061801163533
6.424,0.24451408994265877
6.426,0.20583089537974497
6.428,0.11408176248116542
6.43,0.09838285199848752
6.432,0.0711693346435269
6.434,0.10172311859633927
6.436,0.10309097571938983
6.438,0.08214049278962533
6.44,0.12683400324260574
6.442,0.12560350441107926
6.444,0.12679821249696888
6.446,0.0984367944828552
6.448,0.16625697558243552
6.45,0.04012950507162945
6.452,0.06892425387553652
6.454,0.06391070164935192
6.456,0.07675537013347826
6.458,0.04166007091696653
6.46,0.027130206330760836
6.462,0.06772687578525995
6.464,0.03283270515969486
6.466,0.08370939174686105
6.468,-0.007894257225811378
6.47,0.004890129443348341
6.472,-0.00521493220489121
6.474,-0.058313146594773935
6.476,-0.14110827226252992
6.478,-0.06121131678540029
6.48,-0.06291767488689692
6.482,0.04620963433081933
6.484,0.09192937892006844
6.486,0.16548035424676305
6.488,0.2770616616688891
6.49,0.42850686386240433
6.492,0.47645430404374933
6.494,0.6937823387782227
6.496,0.8108097686473984
6.498,0.9653031287694467
6.5,1.0505156730937224
6.502,1.0916741898842894
6.5040000000000004,0.9403142147363348
6.506,0.8512372119726824
6.508,0.5681465852795868
6.51,0.35816228565026575
6.5120000000000005,0.17837150406814806
6.514,-0.033880902579433034
6.516,-0.05210582661733913
6.518,-0.03801083333767568
6.5200000000000005,-0.05462107977460835
6.522,-0.03641534201571448
6.524,-0.07838938641823079
6.526,-0.1203140712655312
6.5280000000000005,-0.14377504486810774
6.53,-0.16057117015129485
6.532,-0.16932434114349545
6.534,-0.062193179583462384
6.5360000000000005,-0.09009967227154732
6.538,0.0551989583671602
6.54,0.038615869754924356
6.542,0.062425736016032636
6.5440000000000005,0.08395448917055857
6.546,0.06419037673670866
6.548,0.09878882970902642
6.55,0.07038695357504587
6.5520000000000005,0.10359466188740149
6.554,-0.018225010630193737
6.556,0.01864960779878897
6.558,0.054953866701521796
6.5600000000000005,0.015216528903557475
6.562,0.044980298855641254
6.564,0.10592087914265097
6.566,0.08807690175371513
6.5680000000000005,0.06046036428393986
6.57,0.10649154762702116
6.572,0.07189181289422047
6.574,0.015087450411028899
6.5760000000000005,-0.009081859426497602
6.578,0.012059307940097443
6.58,0.011591965466771846
6.582,0.07865887071893331
6.5840000000000005,0.1256406553989792
6.586,0.10008852091757514
6.588,0.10696115410782238
6.59,0.0685165994901831
6.5920000000000005,0.005623351909915857
6.594,0.0012687244445596518
6.596,0.02033629465206773
6.598,-0.007367475774995767
6.6000000000000005,0.01920696588192996
6.602,0.12433145308142807
6.604,0.13747503626184282
6.606,0.09710065756272816
6.6080000000000005,0.11379814278714438
6.61,0.017004735339887198
6.612,-0.005739219091925836
6.614,0.024313098788582663
6.6160000000000005,-0.08080015683478504
6.618,0.08925112111632238
6.62,0.04402618125018461
6.622,0.10016283203813717
6.6240000000000006,0.14796994296778448
6.626,0.055160290017941045
6.628,0.06989083361456372
6.63,0.0007338286323331222
6.632000000000001,0.024555795459608783
6.634,-0.025724679137367694
6.636,0.06333033689983245
6.638,0.01452761642607242
6.640000000000001,0.087938460327421
6.642,0.06317096258657207
6.644,0.069602613455405
6.646,0.07661891136188435
6.648000000000001,0.07627146712571509
6.65,0.014139381731980531
6.652,0.05744924153425073
6.654,-0.001995020174009536
6.656000000000001,0.020572737319061545
6.658,0.03538412032748152
6.66,0.06078990511536088
6.662,0.0037210454242000493
6.664,0.05800318317667236
6.666,0.07161266143505554
6.668,0.09374073113238664
6.67,0.10546826212186791
6.672,0.0074414833287003365
6.674,0.020335770504651202
6.676,-0.015290223353392921
6.678,-0.010675805061973237
6.68,-0.0030530646696889895
6.682,0.07369011401838235
6.684,0.08904381759538306
6.686,0.11951468266619088
6.688,0.10033816050658087
6.69,0.01784475350191108
6.692,0.05638344532466088
6.694,-0.04283228798312049
6.696,-0.04619376500535095
6.698,7.704479892318809e-05
6.7,0.03853234802699157
6.702,0.07530500158510174
6.704,0.10800641692325673
6.706,0.1007218426746659
6.708,0.08466081855066176
6.71,0.024000855177894048
6.712,-0.04220519430070714
6.714,-0.026788172647098877
6.716,-0.045198392908893624
6.718,0.05128100653722563
6.72,0.05976443414670222
6.722,0.03981664575070442
6.724,0.14363780501342147
6.726,0.06505435039436538
6.728,0.04121875729786309
6.73,-0.007595900098919686
6.732,-0.000847424129843892
6.734,-0.0015091321152464632
6.736,-0.009896950556264356
6.738,0.027321899647472867
6.74,0.020627458243230066
6.742,0.06074196474887768
6.744,0.11698024091427306
6.746,0.003224174155453674
6.748,0.053197269976450405
6.75,0.037856737956150674
6.752,0.012011005509613737
6.7540000000000004,0.06798189615052698
6.756,-0.02269568518208984
6.758,0.016250506964921835
6.76,0.010845525210503599
6.7620000000000005,0.04589386960496773
6.764,0.046412728688028156
6.766,0.12561005699959318
6.768,0.09216749553008265
6.7700000000000005,0.034928462875664104
6.772,0.055097734959546715
6.774,0.05778410015219336
6.776,-0.04874178549888402
6.7780000000000005,0.0028129962710599365
6.78,0.061094567984923784
6.782,0.11520645198711836
6.784,0.11159328442580244
6.7860000000000005,0.14861569771924193
6.788,0.20318906897088718
6.79,0.06491831475691404
6.792,0.11137384051690474
6.7940000000000005,0.0583471600728819
6.796,0.04400450327531709
6.798,0.12044107144071066
6.8,0.14180372176083628
6.8020000000000005,0.20800358287653314
6.804,0.2950607830975422
6.806,0.2616849342641791
6.808,0.2624069125139168
6.8100000000000005,0.27103454175919733
6.812,0.21573588920693737
6.814,0.20110643730609307
6.816,0.22783432953721083
6.8180000000000005,0.36912070292471966
6.82,0.40521899077881174
6.822,0.4367223883995296
6.824,0.4911515953706919
6.8260000000000005,0.4826335310966462
6.828,0.47675754478773275
6.83,0.463924247815144
6.832,0.4382247171024757
6.8340000000000005,0.49334026341224696
6.836,0.5045457396905048
6.838,0.5606690085668101
6.84,0.6385424545228754
6.8420000000000005,0.5430456516315485
6.844,0.6050164876343178
6.846,0.5907826102670892
6.848,0.5278861380715227
6.8500000000000005,0.5966810718374543
6.852,0.5210569487847047
6.854,0.5536004461599495
6.856,0.5777120880395157
6.8580000000000005,0.37817513079612103
6.86,0.4910562280591541
6.862,0.5112799414338016
6.864,0.48549056702333715
6.8660000000000005,0.46651014471952995
6.868,0.44820003008741355
6.87,0.5423890333895601
6.872,0.3182992632012673
6.8740000000000006,0.36538660128624917
6.876,0.3439504482343543
6.878,0.27505041837682365
6.88,0.28615685196083623
6.882000000000001,0.31293797907027526
6.884,0.4074893954635762
6.886,0.32245399470562514
6.888,0.3936421002679884
6.890000000000001,0.20705247634681143
6.892,0.22776057119062093
6.894,0.19152443049735962
6.896,0.1456815526737411
6.898000000000001,0.14479418715123196
6.9,0.1801990074138377
6.902,0.2656845305850368
6.904,0.22691722587785024
6.906000000000001,0.2794283186292002
6.908,0.1800509264288664
6.91,0.11403005693746089
6.912,0.07712506334769964
6.914,0.028102493965875094
6.916,0.10514017477605443
6.918,0.04382656579035349
6.92,0.09248860569652961
6.922,0.15727720155061375
6.924,0.15694350181524053
6.926,0.07947526208504442
6.928,0.07378543743056037
6.93,0.025669283370401207
6.932,0.010936317158460229
6.934,-0.0031116607106372353
6.936,-0.019131974626327618
6.938,0.027472439835101087
6.94,0.05621401038507894
6.942,0.04312951979957934
6.944,0.01032178024693494
6.946,0.056611969600435755
6.948,0.00043017257354256017
6.95,-0.035222660362723535
6.952,0.010261880322927443
6.954,-0.027265937133641935
6.956,-0.05413585902545463
6.958,-0.0241371866155397
6.96,-0.04199563713006011
6.962,-0.020121109136591948
6.964,-0.08264936354038313
6.966,-0.030808236709225934
6.968,-0.07997577994300664
6.97,-0.09274502280799306
6.972,-0.1028156273762297
6.974,-0.1909489805163453
6.976,-0.21894832716889673
6.978,-0.15567655500339964
6.98,-0.11302100361813794
6.982,-0.10258961396429846
6.984,0.0022214321548907345
6.986,0.02109256604653146
6.988,0.20718723550651655
6.99,0.3038598107355438
6.992,0.37450276430878804
6.994,0.5530301503778616
6.996,0.7490698804307391
6.998,0.8458204876041356
7.0,0.9775617038571501
7.002,0.9240741407166397
7.0040000000000004,0.857728258895673
7.006,0.6989362927382616
7.008,0.47934444997847103
7.01,0.30319830441284695
7.0120000000000005,0.052990235793419604
7.014,-0.12585702114242803
7.016,-0.18881113354776097
7.018,-0.18334243835338526
7.0200000000000005,-0.15450838390265656
7.022,-0.1645681296923748
7.024,-0.18567817234803696
7.026,-0.2124833129698912
7.0280000000000005,-0.3060951101397188
7.03,-0.2311171906389214
7.032,-0.2574255410150809
7.034,-0.2568371494112267
7.0360000000000005,-0.14628619572994733
7.038,-0.10258804515705933
7.04,-0.08056275549959875
7.042,0.0047536557234115345
7.0440000000000005,-0.031240182555145737
7.046,-0.0627112519941797
7.048,-0.06146551937933408
7.05,-0.05837465351502813
7.0520000000000005,-0.06823970343396493
7.054,-0.09458219091567761
7.056,-0.11772058317604206
7.058,-0.05827610103963691
7.0600000000000005,-0.05602279785856647
7.062,-0.10701125313837513
7.064,-0.04611803893954151
7.066,-0.011408244663195476
7.0680000000000005,-0.045722728617467415
7.07,-0.014238116583629175
7.072,-0.06939001854667176
7.074,-0.13605544836229236
7.0760000000000005,-0.13120038669980397
7.078,-0.10691553002594174
7.08,-0.13949890622678876
7.082,-0.02744006514317967
7.0840000000000005,-0.029964862657356536
7.086,-0.005431307559035913
7.088,-0.019752828217403963
7.09,-0.05998571180437543
7.0920000000000005,-0.07774317123919179
7.094,-0.16611227511376875
7.096,-0.1804503531955359
7.098,-0.11697192903318224
7.1000000000000005,-0.07496475189555518
7.102,-0.04485273792107367
7.104,0.06310839818791907
7.106,-0.08776052207628551
7.1080000000000005,-0.033516260887630135
7.11,-0.07062881478160599
7.112,-0.1444737116160414
7.114,-0.16314908730651767
7.1160000000000005,-0.14556538247564574
7.118,-0.09755326070755214
7.12,-0.063847060472496
7.122,-0.02321894452651139
7.1240000000000006,0.010140260862188277
7.126,-0.08175381918870848
7.128,-0.07802921741302303
7.13,-0.10151669629889803
7.132000000000001,-0.16556959380306926
7.134,-0.1330560859646125
7.136,-0.08040825072054486
7.138,-0.1385258230965777
7.140000000000001,-0.060890804025462424
7.142,-0.06487554548476968
7.144,-0.0348756227529922
7.146,-0.09842705752806388
7.148000000000001,-0.07132357754623173
7.15,-0.10636428712753657
7.152,-0.12002926572187345
7.154,-0.07101028112873906
7.156000000000001,-0.18079034010085138
7.158,-0.07227921355841195
7.16,-0.11325415066366125
7.162,-0.08319833334507368
7.164000000000001,-0.12074728501177018
7.166,-0.03816854773437527
7.168,-0.050095036118223676
7.17,-0.06265462112285998
7.172,-0.11596314115929446
7.174,-0.14804003972121973
7.176,-0.19290459255515446
7.178,-0.17802517483913033
7.18,-0.03238739962884904
7.182,-0.09700987128384497
7.184,-0.10380006821933224
7.186,0.010595678136387635
7.188,-0.04532724852633939
7.19,-0.12318897775931675
7.192,-0.10103828574482167
7.194,-0.18184593146009106
7.196,-0.24822387541291463
7.198,-0.11041107506389647
7.2,-0.09260664628800845
7.202,-0.060874684295533214
7.204,-0.05858775816349206
7.206,-0.020015638615915685
7.208,-0.07972974840404909
7.21,-0.1580317740480473
7.212,-0.11220717476953124
7.214,-0.19127858686584207
7.216,-0.20305328554267266
7.218,-0.07295730466032635
7.22,-0.1203059010270496
7.222,-0.09373035469039111
7.224,0.01623560276689036
7.226,-0.09968567066495111
7.228,-0.1235368518973673
7.23,-0.09812314997763985
7.232,-0.2210400151706126
7.234,-0.11258368265869836
7.236,-0.17856895875407436
7.238,-0.08790756315429891
7.24,-0.09273044574283737
7.242,-0.09778139936707353
7.244,-0.06382560034476523
7.246,-0.11293160744642136
7.248,-0.11412771695809992
7.25,-0.06995939146528604
7.252,-0.12414780478907173
7.2540000000000004,-0.16238121517146475
7.256,-0.1078312076705834
7.258,-0.14433991257633125
7.26,-0.15150723525032508
7.2620000000000005,-0.11082379837548488
7.264,-0.08021660011300213
7.266,-0.07484218128770734
7.268,-0.04501101199613851
7.2700000000000005,-0.029834718621713996
7.272,-0.14523417518351328
7.274,-0.09336948781091584
7.276,-0.11700283846398182
7.2780000000000005,-0.14864427949371448
7.28,-0.11665966188707262
7.282,-0.020085627959649348
7.284,-0.059007147295014405
7.2860000000000005,0.054184852914523005
7.288,-0.03003608476314823
7.29,-0.012907797645031334
7.292,-0.08211704338707707
7.2940000000000005,-0.09229140856732834
7.296,-0.0677680453882154
7.298,-0.031995289274390874
7.3,-0.020243267309070643
7.3020000000000005,0.12188100323798706
7.304,0.09737891328853962
7.306,0.15501397767179978
7.308,0.09880921537544736
7.3100000000000005,0.1477677388609701
7.312,0.0319792763890572
7.314,0.09091206921682428
7.316,0.12632887074210092
7.3180000000000005,0.1701788596057427
7.32,0.24719007724039843
7.322,0.33265985809863524
7.324,0.31546489116408255
7.3260000000000005,0.3359258721889308
7.328,0.3655312612303463
7.33,0.33137490329491226
7.332,0.2978329660132944
7.3340000000000005,0.35128658557945247
7.336,0.3806758620697459
7.338,0.4178375265696106
7.34,0.42968850729037944
7.3420000000000005,0.4789955929485442
7.344,0.41951915815446333
7.346,0.44688131387683383
7.348,0.41581121380590313
7.3500000000000005,0.47434997201576046
7.352,0.3529395347157561
7.354,0.4254372305643327
7.356,0.36202076198072763
7.3580000000000005,0.31053024030382703
7.36,0.40039725751670474
7.362,0.2868808659852238
7.364,0.32384832460527146
7.3660000000000005,0.41243316158555365
7.368,0.3635061362511228
7.37,0.29930769193757323
7.372,0.23009690414538386
7.3740000000000006,0.23852233091278657
7.376,0.18911538948289647
7.378,0.16262558679990397
7.38,0.106967166687791
7.382000000000001,0.2278035205807984
7.384,0.24546989276181028
7.386,0.22865934912118313
7.388,0.2204443282038904
7.390000000000001,0.10093168251365642
7.392,0.08183317692804647
7.394,0.08661489051036428
7.396,0.032731948805913645
7.398000000000001,-0.013561187349021744
7.4,0.0489864371710266
7.402,0.08780924235306281
7.404,0.18239523644407857
7.406000000000001,0.07787234648742004
7.408,0.059337748251436805
7.41,0.018639919073035093
7.412,-0.054180015914303103
7.414000000000001,-0.0699655353469509
7.416,-0.10865887675255112
7.418,-0.015079483791117988
7.42,-0.040052400501061305
7.422000000000001,0.025612577078323588
7.424,0.062343652963798166
7.426,-0.05707387612526631
7.428,-0.08287972746689386
7.43,-0.04385645267255195
7.432,-0.1612109652622573
7.434,-0.11496480827244385
7.436,-0.12172635664456305
7.438,-0.12030661790819405
7.44,-0.064664933012314
7.442,-0.0605706976599735
7.444,-0.0899580711935373
7.446,-0.10821537368933307
7.448,-0.1438038597886071
7.45,-0.03848931397098404
7.452,-0.20198810504701897
7.454,-0.09827142943649401
7.456,-0.16558789365921733
7.458,-0.16601601046738568
7.46,-0.16300845819546672
7.462,-0.14413761068519954
7.464,-0.1849528337039134
7.466,-0.14318683267566515
7.468,-0.19241708635969204
7.47,-0.2122528062909729
7.472,-0.2202612625644563
7.474,-0.3023016310801883
7.476,-0.2706820050981756
7.478,-0.2828724754012432
7.48,-0.2227676359727306
7.482,-0.22041807943797892
7.484,-0.1108875150959232
7.486,-0.0866639581779616
7.488,0.11723903637506686
7.49,0.1778282307398888
7.492,0.33783401635021826
7.494,0.4351115982793273
7.496,0.573544287294035
7.498,0.794910471595665
7.5,0.8444090677707938
7.502,0.8552747736719548
7.5040000000000004,0.7638503300859644
7.506,0.572883039705774
7.508,0.4058227163811963
7.51,0.09795274266438099
7.5120000000000005,0.012362835975229757
7.514,-0.1937741527711152
7.516,-0.2777035042813079
7.518,-0.28478496814047277
7.5200000000000005,-0.27786100794295254
7.522,-0.19845017513610103
7.524,-0.3660579364827458
7.526,-0.2952494125436331
7.5280000000000005,-0.3301002408301424
7.53,-0.38850520845088105
7.532,-0.35650040683774287
7.534,-0.29007210844852466
7.5360000000000005,-0.31496542268772204
7.538,-0.15429624141327192
7.54,-0.112910083936096
7.542,-0.1313515559407515
7.5440000000000005,-0.15020688732759588
7.546,-0.146074689043336
7.548,-0.10486837980794705
7.55,-0.16883541856205547
7.5520000000000005,-0.12116971269646509
7.554,-0.15805325502248715
7.556,-0.21517237996298738
7.558,-0.14998351467339374
7.5600000000000005,-0.15462271703204794
7.562,-0.19702623077718542
7.564,-0.12556866141870188
7.566,-0.07930512636238574
7.5680000000000005,-0.0969150375452898
7.57,-0.1827317970186549
7.572,-0.06341489774713606
7.574,-0.191803899705953
7.5760000000000005,-0.2630723868406432
7.578,-0.1648354775934297
7.58,-0.1691324049757163
7.582,-0.18313574408606628
7.5840000000000005,-0.08666810687848159
7.586,-0.04848396189591822
7.588,-0.10290432686699286
7.59,-0.10752786635455845
7.5920000000000005,-0.19009440544418008
7.594,-0.2019731039361039
7.596,-0.2620483184076745
7.598,-0.17858439018649663
7.6000000000000005,-0.13462053034109683
7.602,-0.07846960587596119
7.604,-0.06639154375520584
7.606,-0.05646955760406951
7.6080000000000005,-0.08980025218544095
7.61,-0.17585874170162202
7.612,-0.23390249471625696
7.614,-0.19720556387020696
7.6160000000000005,-0.21037291305061717
7.618,-0.1640863169722688
7.62,-0.10485912437429158
7.622,-0.11439202471333469
7.6240000000000006,-0.0798735849362695
7.626,-0.05174418278507253
7.628,-0.1729067185517725
7.63,-0.18250171235905965
7.632000000000001,-0.18088117436174808
7.634,-0.1765199101189286
7.636,-0.1622764466958729
7.638,-0.1449651475213066
7.640000000000001,-0.10262543358608597
7.642,-0.11401082394487388
7.644,-0.1260634346337318
7.646,-0.1276636998363326
7.648000000000001,-0.13913245949933561
7.65,-0.12022870356036844
7.652,-0.1713902402289594
7.654,-0.13452250773788194
7.656000000000001,-0.17722405668652325
7.658,-0.09640385945430881
7.66,-0.2150701312376656
7.662,-0.11898259187029084
7.664000000000001,-0.15742910347470282
7.666,-0.05018669376838872
7.668,-0.08012715404167674
7.67,-0.1672408084588834
7.672000000000001,-0.11169499817373463
7.674,-0.14838605080326855
7.676,-0.2522717611655376
7.678,-0.1766242827607241
7.68,-0.13791543589044059
7.682,-0.10873484372809437
7.684,-0.06730786752471125
7.686,-0.04318898732968081
7.688,-0.12009382580492799
7.69,-0.11644092996240697
7.692,-0.15232655096628234
7.694,-0.20432945988226928
7.696,-0.21456609561057055
7.698,-0.18669864363760008
7.7,-0.10229197058125963
7.702,-0.09101472891275003
7.704,-0.050686395706982815
7.706,-0.07642380372670149
7.708,-0.07737901945333342
7.71,-0.1539086009123395
7.712,-0.18769744489510565
7.714,-0.21567682004502728
7.716,-0.18257401160486267
7.718,-0.10932698823526743
7.72,-0.08610131838171647
7.722,-0.10471048825853281
7.724,-0.038328500886406144
7.726,-0.10880736660089045
7.728,-0.10312464405175337
7.73,-0.18599082516907417
7.732,-0.11408510326152367
7.734,-0.22346960182146447
7.736,-0.06373086434516688
7.738,-0.13527932079439142
7.74,-0.14318502877443134
7.742,-0.07676618894464178
7.744,-0.06457425895148322
7.746,-0.15025804126589237
7.748,-0.0697859109439323
7.75,-0.1328961212555604
7.752,-0.11149499802689011
7.7540000000000004,-0.1411698672949966
7.756,-0.1271845114880736
7.758,-0.13480603997194057
7.76,-0.10711662871471633
7.7620000000000005,-0.11113235459682744
7.764,-0.05384808444429615
7.766,-0.08211936778881074
7.768,-0.03880220785074356
7.7700000000000005,-0.0437201139559219
7.772,-0.07535891072990733
7.774,-0.13836629604273354
7.776,-0.1352088738283711
7.7780000000000005,-0.11699351364390788
7.78,-0.09692000111288947
7.782,-0.02957707812718586
7.784,-0.03347787936990084
7.7860000000000005,0.05716913403832537
7.788,0.048264007586037404
7.79,-0.03422102061712897
7.792,-0.06804507733157916
7.7940000000000005,-0.024136955827186946
7.796,-0.026341003095279272
7.798,-0.0843188206729012
7.8,0.031552367500302964
7.8020000000000005,0.08275513017091345
7.804,0.16960305262758818
7.806,0.1840649947579754
7.808,0.12742747973532514
7.8100000000000005,0.12373649876866911
7.812,0.09862696073404298
7.814,0.1240513203028837
7.816,0.14036506994331185
7.8180000000000005,0.24946478879136136
7.82,0.2679567158944386
7.822,0.3488232260786079
7.824,0.3888830382815876
7.8260000000000005,0.35754408304960283
7.828,0.3894662361035327
7.83,0.3422781599007161
7.832,0.35681314088333593
7.8340000000000005,0.3761437974445965
7.836,0.4247171974084224
7.838,0.47382311236220154
7.84,0.4497581209892372
7.8420000000000005,0.49290372053552023
7.844,0.5216838936998869
7.846,0.4332837809339107
7.848,0.5130636619532047
7.8500000000000005,0.4443037268386838
7.852,0.4770387546234959
7.854,0.4238247623830278
7.856,0.4218866314640141
7.8580000000000005,0.37207078058793824
7.86,0.43545333767044103
7.862,0.36707105933465894
7.864,0.4326341878475831
7.8660000000000005,0.3787908232917966
7.868,0.3718647171590861
7.87,0.3879956293582912
7.872,0.3042205443522855
7.8740000000000006,0.2689115855097601
7.876,0.2609785916978804
7.878,0.20515327080186707
7.88,0.20626100773321707
7.882000000000001,0.24234019112963842
7.884,0.30313836189898413
7.886,0.30589443055947846
7.888,0.2438811347748837
7.890000000000001,0.22873102647512403
7.892,0.13883476899243152
7.894,0.0898715897978568
7.896,0.05450880100348537
7.898000000000001,0.12011979265945298
7.9,0.14973148931968283
7.902,0.18723411285299799
7.904,0.1528500504694823
7.906000000000001,0.1886095817207546
7.908,0.15327196681042843
7.91,0.05860758202077236
7.912,-0.004385093214198617
7.914000000000001,-0.03411609150790676
7.916,0.02909618560630963
7.918,0.008117676865020677
7.92,0.08901342335722937
7.922000000000001,0.10623129372092263
7.924,0.0656193571274121
7.926,0.06892748773609676
7.928,0.01896066802426009
7.930000000000001,-0.02242237901872475
7.932,-0.03478724188037477
7.934,-0.043955959490759984
7.936,-0.058277408247435006
7.938,0.0064855888978453125
7.94,-0.009454771683072526
7.942,0.020236870144478985
7.944,-0.025264446647440354
7.946,-0.03643768224118631
7.948,0.017517329631861873
7.95,-0.07877145276529779
7.952,-0.022393103320210196
7.954,-0.08467306717580597
7.956,-0.06074232806592192
7.958,-0.06082602915797243
7.96,-0.035044005789991804
7.962,-0.09061965893736727
7.964,-0.0662023455210379
7.966,-0.07109594277831578
7.968,-0.0797718764747795
7.97,-0.08955779028393425
7.972,-0.16011067811102736
7.974,-0.17250963705228167
7.976,-0.27008524184769755
7.978,-0.16392422007027624
7.98,-0.1503798224426534
7.982,-0.08158900011903857
7.984,-0.013986823812059379
7.986,-0.024929512730345882
7.988,0.17054094176762047
7.99,0.3354187472823639
7.992,0.419008901134789
7.994,0.571786465098502
7.996,0.7056857959904723
7.998,0.846975621776228
8.0,0.9586611118353404
8.002,0.9468570966922574
8.004,0.892121773419049
8.006,0.7416526394878846
8.008000000000001,0.3940876432765096
8.01,0.27868291442332954
8.012,0.08498846241245975
8.014,-0.08556397579649747
8.016,-0.21823052605448207
8.018,-0.12305739236511595
8.02,-0.14565882854594778
8.022,-0.16157767038767606
8.024000000000001,-0.1511837363207453
8.026,-0.26862743316928844
8.028,-0.1925826420039956
8.03,-0.2516913736133162
8.032,-0.2575326506704011
8.034,-0.2021325035864889
8.036,-0.17314133485611982
8.038,-0.05456831631923287
8.040000000000001,-0.03876342055502505
8.042,-0.0016283558955062158
8.044,0.007308921809638359
8.046,-0.01696814646487134
8.048,-0.018399280608098808
8.05,-0.016285584306959065
8.052,-0.05408826308789133
8.054,-0.0713973358954611
8.056000000000001,-0.011982006730554759
8.058,-0.08486961530864726
8.06,-0.025538456430058542
8.062,-0.08086445684971127
8.064,0.009049363663183516
8.066,0.040025296215930206
8.068,0.029634285669609427
8.07,0.010092027167017648
8.072000000000001,-0.06328135840783668
8.074,0.005660577045135132
8.076,-0.12498595977941482
8.078,-0.14583363409161787
8.08,-0.011668667933121074
8.082,-0.008012956115185916
8.084,0.06423505913228125
8.086,0.01894500665031726
8.088000000000001,0.07023720628884647
8.09,0.00433159975985993
8.092,-0.06468173129128621
8.094,-0.07199612476195634
8.096,-0.09716278829577449
8.098,-0.0811601270969298
8.1,-0.0013159717521972463
8.102,0.03864040503414911
8.104000000000001,0.0458236569588102
8.106,0.05436390268672264
8.108,0.02096639370342348
8.11,-0.01192244470156911
8.112,-0.05622016574149847
8.114,-0.0868332175346495
8.116,-0.08365647744557786
8.118,-0.03728059855108533
8.120000000000001,0.04703502357331961
8.122,0.08561919579460125
8.124,0.0041340126496818355
8.126,0.011380544896380542
8.128,-0.016471135106910846
8.13,-0.039875407860880015
8.132,-0.04869049742104341
8.134,-0.03660401273677805
8.136000000000001,0.04907069325308827
8.138,-0.0756971148901134
8.14,0.029376827045425907
8.142,0.00962461284051212
8.144,0.043411529031437274
8.146,0.011192315610134356
8.148,0.0029574886851613663
8.15,-0.023134039071835817
8.152000000000001,0.008185878417791694
8.154,-0.02033420262961157
8.156,-0.007755688391761786
8.158,-0.028865269078520783
8.16,0.003852874821662168
8.162,0.03609586801296367
8.164,-0.02976082409454712
8.166,0.0469265402108809
8.168000000000001,0.023748142586951515
8.17,0.0367065207658174
8.172,0.027025739142931392
8.174,0.0031280222909973385
8.176,-0.11591566658477645
8.178,-0.06186400168783805
8.18,0.008558971334768913
8.182,0.05718884732338084
8.184000000000001,0.05848143827967557
8.186,0.04588506779511097
8.188,0.08167715779579778
8.19,0.07395436580304836
8.192,-0.04400606366852615
8.194,-0.05732833390321164
8.196,-0.10383947099075037
8.198,-0.02221956931372173
8.2,-0.007815268404460384
8.202,0.12318293226564735
8.204,0.031822255528204196
8.206,0.12274144942247175
8.208,0.05328387731121835
8.21,0.01375812070452901
8.212,-0.07328024662138721
8.214,0.00453172805106767
8.216,-0.11327750898304978
8.218,0.022197892263447618
8.22,0.04213147980286464
8.222,0.08448969238411472
8.224,0.09514012959833998
8.226,0.01567843935216185
8.228,0.05730266918591126
8.23,-0.00397591819616459
8.232,-0.02466935457551754
8.234,-0.010488492053557463
8.236,0.0004798468811307542
8.238,0.0071747276887449835
8.24,0.04602089229313102
8.242,0.09105364088702772
8.244,0.03613525803369011
8.246,0.04472698641078877
8.248,0.06160423124413867
8.25,0.020646642459106083
8.252,0.056573581921384467
8.254,-0.0378576912370847
8.256,0.046746402116725386
8.258000000000001,0.04456109596195987
8.26,-3.962832746355269e-05
8.262,0.02051209617407094
8.264,0.09436458973947635
8.266,0.09691879026763468
8.268,0.08687396950352458
8.27,0.07748655570849042
8.272,0.08521029362259866
8.274000000000001,0.025587860752306985
8.276,0.017931806855739838
8.278,0.006489189871860434
8.28,0.06585353715684343
8.282,0.12825750224554194
8.284,0.1150778945694129
8.286,0.20065315603181064
8.288,0.1604051426937616
8.290000000000001,0.16122941397622248
8.292,0.07430181950455744
8.294,0.08492176526802143
8.296,0.026490451526041667
8.298,0.1595627819284316
8.3,0.164939511709399
8.302,0.26007237718815673
8.304,0.3072613372832857
8.306000000000001,0.3061811583116669
8.308,0.31231503300806585
8.31,0.25643410681156714
8.312,0.2038317706029987
8.314,0.263612451036476
8.316,0.31545716832960397
8.318,0.35875281233928125
8.32,0.4253721216058635
8.322000000000001,0.4823768720617558
8.324,0.5208266836384421
8.326,0.5476746707077763
8.328,0.5188785400670014
8.33,0.4762249711281884
8.332,0.5090362270435851
8.334,0.5517115140382992
8.336,0.5256601009851439
8.338000000000001,0.6140964363969738
8.34,0.5905131487268789
8.342,0.6367850554207374
8.344,0.6628812543127673
8.346,0.6089639176031258
8.348,0.5972026883551018
8.35,0.6228819191619627
8.352,0.5790824371078768
8.354000000000001,0.5848709111038863
8.356,0.517094312312611
8.358,0.584270103510256
8.36,0.5126613599578114
8.362,0.5578574366639442
8.364,0.5461708141162602
8.366,0.5228280191687016
8.368,0.5559707502919315
8.370000000000001,0.4647360988175881
8.372,0.470399842226595
8.374,0.3812119094815503
8.376,0.37808323697898805
8.378,0.31582721941371983
8.38,0.42798621034963397
8.382,0.34403107789898696
8.384,0.47595458345742514
8.386000000000001,0.37866679459678276
8.388,0.4010608369276274
8.39,0.34452346102068326
8.392,0.29259373820835366
8.394,0.25300142184655455
8.396,0.20576984854115427
8.398,0.23405692332762854
8.4,0.24410768650784065
8.402000000000001,0.2937892031055394
8.404,0.32973851067503823
8.406,0.32537213178483143
8.408,0.22869102095720178
8.41,0.2043920850068354
8.412,0.14724402173303722
8.414,0.1454798112114023
8.416,0.10640372760800827
8.418000000000001,0.20380866973524017
8.42,0.1867189598864995
8.422,0.22427023293089948
8.424,0.16696674836944156
8.426,0.19759618780124827
8.428,0.15507093434801011
8.43,0.07804537705129545
8.432,0.06452440710355554
8.434000000000001,0.10337092593528324
8.436,0.07951706694021637
8.438,0.13281562081369935
8.44,0.11134009180909733
8.442,0.13493736344171745
8.444,0.12372558381432622
8.446,0.11315353218477994
8.448,0.09535586187578349
8.45,0.0944122545701335
8.452,0.030438930758314525
8.454,0.09942943787042431
8.456,0.019983478812678035
8.458,0.04818725763858099
8.46,0.04210871767159388
8.462,0.07954499734928924
8.464,0.043280559380077126
8.466,0.06871902467951316
8.468,-0.006057054382443389
8.47,0.04497814000528591
8.472,-0.06541125217184954
8.474,-0.08792663818751889
8.476,-0.09162769520558038
8.478,-0.031005069180178223
8.48,-0.06592307425169541
8.482,0.015563558270498263
8.484,0.09110519223646792
8.486,0.13177658825205793
8.488,0.33330398963165847
8.49,0.38885256077216646
8.492,0.5267751737099519
8.494,0.628805461549925
8.496,0.8341647247066486
8.498,0.960481116538082
8.5,1.0836705293242377
8.502,1.0635025321889942
8.504,0.9063849354882509
8.506,0.8573401903050115
8.508000000000001,0.5925153686291259
8.51,0.32355704410534825
8.512,0.20030783974924143
8.514,-0.024302701821652964
8.516,-0.043304449527309566
8.518,-0.08882374383943567
8.52,-0.010830667392202335
8.522,-0.10180898874594668
8.524000000000001,-0.04438146871120582
8.526,-0.08420207232189694
8.528,-0.14564801661557436
8.53,-0.13778192049985938
8.532,-0.17956635372251145
8.534,-0.056146082346498094
8.536,-0.08876181702491795
8.538,0.009336607253201595
8.540000000000001,0.07213819171779609
8.542,0.0989879190624934
8.544,0.11691855593875813
8.546,0.05541666945253042
8.548,0.04754905318740774
8.55,0.03169213796578777
8.552,0.0636736368738815
8.554,0.0453619045894061
8.556000000000001,0.07826095878035091
8.558,0.01395330733023388
8.56,0.04750724808502611
8.562,0.015196346659283058
8.564,0.10748500358817444
8.566,0.09595215840464154
8.568,0.11895356027633829
8.57,0.04814881826858097
8.572000000000001,0.08948585461325828
8.574,0.060351137421298204
8.576,-0.0542417217002739
8.578,0.028875633533217062
8.58,-0.02037684687548429
8.582,0.11253476248962925
8.584,0.09216602649280917
8.586,0.12363836964736862
8.588000000000001,0.15673498632430807
8.59,0.10091811799642846
8.592,-0.009215422328436744
8.594,-0.048563399638536904
8.596,0.03875893513437731
8.598,-0.01851032414380163
8.6,0.05320735445901053
8.602,0.10190748661070174
8.604000000000001,0.1218317425148633
8.606,0.12454981494593637
8.608,0.12203989323180206
8.61,0.02939249911433523
8.612,-0.035172193908227865
8.614,-0.007853630236653673
8.616,0.008651166806346151
8.618,0.04221284501519524
8.620000000000001,0.05209166863635754
8.622,0.1702157121321189
8.624,0.07995632998142171
8.626,0.07070323639720662
